Nazwa,Matylda
Data urodzenia,"2 mar 2006"
Data rejestracji,2026-03-11 13:33:58 +0200
Klasyfikacja,Rytm zatokowy
Objawy,
Wersja oprogramowania,1.90
Urządzenie,"Watch7,3"
Częstotliwość próbkowania,512 herców


Odprowadzenie,Odprowadzenie I
Jednostka,µV

206,764
-2,719
-146,872
-212,506
-214,683
-183,45
-150,426
-130,621
-122,501
-117,687
-107,436
-89,876
-69,227
-50,884
-38,575
-33,011
-33,123
-37,056
-42,955
-49,699
-56,127
-61,074
-63,904
-64,003
-60,871
-54,729
-46,099
-35,506
-23,737
-11,537
0,592
12,046
22,286
31,198
38,858
45,434
51,231
56,473
61,327
66,021
70,761
75,608
80,535
85,459
90,27
94,926
99,4
103,652
107,629
111,277
114,586
117,566
120,252
122,691
124,888
126,843
128,568
130,074
131,376
132,492
133,414
134,116
134,583
134,795
134,735
134,402
133,768
132,799
131,451
129,665
127,411
124,681
121,473
117,798
113,671
109,111
104,151
98,844
93,235
87,37
81,291
75,034
68,646
62,184
55,708
49,285
42,97
36,806
30,827
25,064
19,54
14,276
9,283
4,563
0,118
-4,045
-7,92
-11,501
-14,785
-17,774
-20,476
-22,897
-25,047
-26,934
-28,565
-29,953
-31,107
-32,038
-32,753
-33,259
-33,566
-33,686
-33,63
-33,413
-33,047
-32,545
-31,922
-31,191
-30,367
-29,46
-28,482
-27,444
-26,355
-25,224
-24,061
-22,875
-21,674
-20,467
-19,26
-18,06
-16,875
-15,711
-14,572
-13,463
-12,388
-11,353
-10,359
-9,411
-8,512
-7,665
-6,874
-6,141
-5,47
-4,864
-4,325
-3,855
-3,455
-3,127
-2,872
-2,689
-2,581
-2,546
-2,586
-2,702
-2,894
-3,163
-3,51
-3,935
-4,438
-5,018
-5,676
-6,41
-7,22
-8,103
-9,06
-10,089
-11,189
-12,358
-13,595
-14,898
-16,263
-17,686
-19,162
-20,686
-22,251
-23,849
-25,47
-27,11
-28,759
-30,41
-32,057
-33,694
-35,315
-36,917
-38,492
-40,032
-41,527
-42,965
-44,335
-45,626
-46,822
-47,914
-48,889
-49,738
-50,455
-51,036
-51,475
-51,764
-51,892
-51,842
-51,606
-51,184
-50,572
-49,779
-48,816
-47,705
-46,482
-45,188
-43,853
-42,5
-41,14
-39,769
-38,39
-37,003
-35,606
-34,212
-32,827
-31,447
-30,082
-28,735
-27,391
-26,025
-24,582
-22,992
-21,219
-19,252
-17,099
-14,804
-12,41
-9,973
-7,577
-5,292
-3,19
-1,349
0,184
1,363
2,115
2,37
2,033
0,992
-0,802
-3,369
-6,722
-10,808
-15,567
-20,903
-26,662
-32,701
-38,888
-45,064
-51,064
-56,784
-62,168
-67,241
-72,116
-76,846
-81,429
-85,908
-90,419
-95,035
-99,672
-104,053
-107,616
-109,944
-111,068
-111,095
-110,044
-107,954
-104,889
-101,255
-98,079
-96,236
-95,831
-96,729
-98,792
-102,144
-107,365
-114,665
-123,615
-133,759
-145,045
-157,77
-171,098
-182,418
-188,769
-187,114
-177,572
-163,603
-145,266
-119,878
-79,493
-11,298
89,654
219,867
367,142
511,827
639,984
747,571
838,168
917,776
988,027
1038,946
1052,218
1014,336
917,501
769,242
594,322
417,27
263,146
148,005
69,036
18,969
-13,624
-39,091
-56,537
-64,05
-61,657
-52,396
-45,109
-46,357
-56,557
-70,463
-80,393
-82,092
-76,431
-68,057
-61,438
-58,249
-57,764
-58,38
-59,708
-62,411
-67,073
-73,763
-81,524
-89,1
-95,879
-101,485
-105,546
-107,822
-108,171
-106,763
-104,339
-101,792
-99,623
-98,076
-97,2
-96,865
-96,976
-97,379
-97,721
-97,618
-96,874
-95,449
-93,449
-91,083
-88,482
-85,734
-82,921
-80,087
-77,238
-74,334
-71,323
-68,17
-64,869
-61,451
-57,953
-54,407
-50,809
-47,14
-43,346
-39,348
-35,081
-30,495
-25,568
-20,321
-14,803
-9,093
-3,263
2,627
8,531
14,423
20,288
26,113
31,887
37,598
43,22
48,706
54,017
59,112
63,965
68,568
72,928
77,062
80,988
84,721
88,269
91,629
94,797
97,758
100,494
102,983
105,206
107,151
108,809
110,175
111,24
111,993
112,423
112,518
112,267
111,657
110,681
109,333
107,611
105,516
103,054
100,233
97,064
93,557
89,724
85,576
81,129
76,395
71,392
66,134
60,642
54,934
49,032
42,958
36,737
30,392
23,949
17,431
10,865
4,276
-2,312
-8,872
-15,382
-21,818
-28,157
-34,376
-40,455
-46,374
-52,114
-57,658
-62,989
-68,094
-72,96
-77,575
-81,931
-86,02
-89,836
-93,376
-96,635
-99,613
-102,31
-104,727
-106,868
-108,736
-110,339
-111,683
-112,778
-113,631
-114,255
-114,66
-114,859
-114,863
-114,686
-114,341
-113,84
-113,199
-112,43
-111,548
-110,565
-109,496
-108,353
-107,15
-105,898
-104,61
-103,297
-101,969
-100,636
-99,308
-97,994
-96,7
-95,435
-94,204
-93,014
-91,868
-90,771
-89,726
-88,735
-87,799
-86,921
-86,1
-85,337
-84,63
-83,98
-83,385
-82,844
-82,355
-81,917
-81,527
-81,184
-80,886
-80,628
-80,411
-80,23
-80,083
-79,969
-79,884
-79,826
-79,794
-79,784
-79,796
-79,826
-79,873
-79,935
-80,01
-80,097
-80,193
-80,298
-80,409
-80,527
-80,649
-80,775
-80,903
-81,033
-81,161
-81,286
-81,407
-81,52
-81,621
-81,709
-81,778
-81,826
-81,848
-81,84
-81,799
-81,718
-81,593
-81,419
-81,19
-80,901
-80,547
-80,121
-79,619
-79,036
-78,367
-77,609
-76,756
-75,806
-74,754
-73,599
-72,337
-70,967
-69,485
-67,894
-66,191
-64,381
-62,464
-60,447
-58,335
-56,137
-53,864
-51,525
-49,137
-46,713
-44,271
-41,829
-39,405
-37,015
-34,678
-32,41
-30,23
-28,154
-26,2
-24,384
-22,722
-21,231
-19,929
-18,83
-17,942
-17,267
-16,806
-16,559
-16,531
-16,736
-17,189
-17,894
-18,857
-20,085
-21,581
-23,346
-25,358
-27,566
-29,922
-32,378
-34,898
-37,475
-40,087
-42,691
-45,237
-47,64
-49,824
-51,747
-53,336
-54,492
-55,193
-55,466
-55,449
-55,444
-55,696
-56,372
-57,675
-59,731
-62,487
-65,785
-69,259
-72,334
-74,602
-75,774
-75,476
-73,542
-70,156
-65,702
-60,891
-56,638
-53,552
-52,096
-52,98
-56,743
-63,484
-73,002
-84,472
-96,714
-108,881
-120,102
-129,079
-133,246
-129,067
-113,747
-85,158
-44,74
2,921
56,692
116,926
187,598
277,922
389,914
520,304
662,316
802,061
929,745
1038,109
1119,165
1165,655
1167,069
1115,706
1008,789
854,2
673,587
491,563
334,085
217,754
141,712
97,401
71,425
53,542
42,382
38,852
41,506
43,934
38,659
21,607
-4,36
-29,524
-46,584
-53,072
-51,107
-46,982
-44,336
-43,464
-43,657
-43,382
-42,454
-41,816
-42,095
-43,454
-45,558
-47,985
-50,367
-52,384
-53,812
-54,493
-54,433
-53,956
-53,565
-53,598
-54,279
-55,696
-57,764
-60,376
-63,352
-66,388
-69,105
-71,204
-72,5
-72,91
-72,46
-71,188
-69,131
-66,355
-62,952
-59,011
-54,608
-49,807
-44,655
-39,202
-33,522
-27,694
-21,8
-15,918
-10,101
-4,381
1,217
6,68
12,001
17,175
22,204
27,099
31,862
36,492
40,986
45,341
49,556
53,637
57,588
61,413
65,112
68,681
72,116
75,411
78,56
81,554
84,382
87,032
89,496
91,766
93,838
95,704
97,359
98,795
100,005
100,981
101,715
102,197
102,418
102,371
102,045
101,43
100,53
99,351
97,891
96,153
94,125
91,788
89,156
86,24
83,015
79,459
75,561
71,307
66,732
61,898
56,797
51,394
45,819
40,216
34,526
28,789
23,067
17,104
11,726
7,719
3,984
0,21
-5,628
-15,936
-27,996
-40,052
-49,366
-52,112
-51,451
-50,007
-49,673
-53,789
-60,173
-66,466
-72,272
-76,409
-79,924
-84,258
-89,211
-94,427
-99,58
-104,395
-108,783
-112,636
-115,577
-116,989
-116,852
-115,753
-114,047
-111,951
-109,701
-107,372
-105,248
-103,888
-103,36
-103,274
-103,375
-103,452
-103,371
-103,199
-102,861
-102,11
-100,923
-99,461
-97,843
-96,205
-94,602
-92,969
-91,302
-89,651
-88,025
-86,417
-84,814
-83,187
-81,53
-79,874
-78,233
-76,619
-75,034
-73,47
-71,923
-70,391
-68,873
-67,37
-65,88
-64,4
-62,929
-61,464
-60,003
-58,546
-57,091
-55,635
-54,177
-52,713
-51,245
-49,775
-48,306
-46,842
-45,386
-43,94
-42,507
-41,092
-39,699
-38,333
-36,998
-35,699
-34,443
-33,233
-32,078
-30,982
-29,952
-28,993
-28,111
-27,31
-26,596
-25,973
-25,445
-25,015
-24,687
-24,461
-24,34
-24,325
-24,414
-24,609
-24,907
-25,306
-25,805
-26,398
-27,083
-27,854
-28,706
-29,632
-30,624
-31,675
-32,777
-33,921
-35,098
-36,297
-37,509
-38,723
-39,929
-41,115
-42,269
-43,38
-44,437
-45,428
-46,342
-47,17
-47,901
-48,527
-49,04
-49,433
-49,699
-49,832
-49,829
-49,684
-49,395
-48,96
-48,378
-47,651
-46,782
-45,774
-44,634
-43,372
-41,998
-40,523
-38,96
-37,325
-35,634
-33,904
-32,156
-30,405
-28,672
-26,977
-25,341
-23,786
-22,332
-20,997
-19,799
-18,754
-17,879
-17,193
-16,708
-16,428
-16,359
-16,503
-16,865
-17,46
-18,295
-19,371
-20,691
-22,254
-24,056
-26,094
-28,349
-30,786
-33,363
-36,029
-38,739
-41,468
-44,185
-46,87
-49,485
-51,963
-54,251
-56,295
-58,036
-59,448
-60,478
-61,061
-61,24
-61,135
-60,927
-60,912
-61,31
-62,234
-63,88
-66,36
-69,604
-73,512
-77,703
-81,564
-84,661
-86,545
-86,697
-84,909
-81,157
-75,487
-68,478
-60,933
-53,598
-47,609
-44,068
-43,79
-47,471
-55,413
-67,473
-82,214
-96,66
-107,576
-111,313
-107,351
-99,016
-86,59
-68,766
-38,803
17,49
106,529
228,857
378,968
538,847
694,714
836,282
950,841
1034,486
1083,398
1091,464
1061,518
995,467
895,232
771,884
635,062
497,479
376,627
279,53
208,005
158,267
118,429
82,762
49,977
20,656
-0,336
-12,07
-17,243
-18,505
-19,5
-22,166
-26,176
-30,935
-35,89
-40,682
-45,217
-49,533
-53,464
-56,745
-59,454
-61,841
-63,876
-65,346
-66,025
-65,555
-63,867
-61,162
-57,554
-53,186
-48,382
-43,581
-39,187
-35,578
-32,926
-31,206
-30,345
-30,187
-30,526
-31,108
-31,751
-32,365
-32,873
-33,258
-33,52
-33,657
-33,683
-33,621
-33,438
-33,049
-32,407
-31,472
-30,233
-28,727
-26,957
-24,912
-22,576
-19,906
-16,889
-13,531
-9,821
-5,748
-1,325
3,427
8,446
13,627
18,904
24,235
29,588
34,952
40,305
45,614
50,852
55,994
61,017
65,903
70,629
75,167
79,506
83,645
87,6
91,406
95,081
98,631
102,055
105,345
108,49
111,485
114,313
116,95
119,379
121,584
123,549
125,265
126,719
127,892
128,764
129,313
129,521
129,373
128,857
127,963
126,686
125,02
122,968
120,535
117,727
114,55
111,013
107,123
102,89
98,326
93,446
88,263
82,796
77,062
71,083
64,883
58,485
51,913
45,195
38,357
31,427
24,433
17,403
10,366
3,351
-3,613
-10,498
-17,276
-23,92
-30,404
-36,703
-42,794
-48,655
-54,268
-59,613
-64,675
-69,441
-73,898
-78,035
-81,846
-85,322
-88,46
-91,257
-93,712
-95,826
-97,603
-99,047
-100,166
-100,968
-101,463
-101,663
-101,579
-101,228
-100,622
-99,778
-98,714
-97,446
-95,993
-94,373
-92,606
-90,71
-88,704
-86,608
-84,439
-82,216
-79,956
-77,675
-75,39
-73,116
-70,868
-68,658
-66,5
-64,406
-62,387
-60,451
-58,608
-56,864
-55,228
-53,703
-52,293
-51,003
-49,834
-48,787
-47,863
-47,06
-46,379
-45,815
-45,367
-45,029
-44,799
-44,669
-44,635
-44,691
-44,831
-45,047
-45,334
-45,685
-46,092
-46,55
-47,051
-47,588
-48,155
-48,745
-49,351
-49,968
-50,59
-51,211
-51,826
-52,429
-53,017
-53,585
-54,129
-54,646
-55,133
-55,587
-56,007
-56,39
-56,736
-57,045
-57,317
-57,552
-57,751
-57,917
-58,05
-58,153
-58,228
-58,276
-58,3
-58,303
-58,287
-58,256
-58,213
-58,16
-58,101
-58,038
-57,975
-57,914
-57,858
-57,808
-57,769
-57,741
-57,727
-57,731
-57,752
-57,792
-57,853
-57,936
-58,04
-58,163
-58,304
-58,46
-58,628
-58,805
-58,985
-59,163
-59,333
-59,49
-59,631
-59,749
-59,838
-59,893
-59,907
-59,876
-59,793
-59,651
-59,44
-59,149
-58,771
-58,3
-57,729
-57,053
-56,264
-55,357
-54,328
-53,18
-51,912
-50,518
-48,992
-47,321
-45,511
-43,574
-41,532
-39,406
-37,214
-34,974
-32,717
-30,478
-28,28
-26,135
-24,033
-21,965
-19,935
-17,961
-16,075
-14,31
-12,679
-11,178
-9,798
-8,538
-7,39
-6,337
-5,341
-4,353
-3,364
-2,408
-1,556
-0,88
-0,421
-0,195
-0,199
-0,423
-0,857
-1,488
-2,303
-3,273
-4,401
-5,713
-7,259
-9,083
-11,168
-13,426
-15,724
-17,95
-19,998
-21,767
-23,25
-24,5
-25,672
-27,033
-28,811
-31,167
-34,289
-38,294
-43,058
-48,319
-53,641
-58,429
-62,319
-65,054
-66,231
-65,608
-63,269
-59,537
-55,118
-50,903
-47,411
-45,117
-44,8
-47,106
-52,449
-60,801
-71,348
-83,159
-95,606
-107,605
-117,558
-122,643
-118,756
-103,726
-76,728
-38,047
9,733
68,428
142,182
232,6
342,475
467,603
598,195
728,471
851,252
961,694
1057,418
1130,058
1168,183
1160,946
1100,433
986,086
830,71
655,515
483,845
339,649
233,107
161,215
114,746
77,861
42,056
7,613
-22,264
-40,955
-46,762
-43,285
-35,039
-27,3
-22,559
-20,844
-22,104
-25,928
-31,987
-39,943
-48,818
-57,422
-65,114
-71,49
-76,178
-79,07
-80,048
-79,191
-76,987
-74,066
-70,914
-67,997
-65,81
-64,632
-64,697
-66,116
-68,727
-72,289
-76,542
-81,149
-85,726
-89,987
-93,674
-96,575
-98,614
-99,745
-99,945
-99,256
-97,732
-95,418
-92,379
-88,678
-84,37
-79,523
-74,215
-68,519
-62,524
-56,317
-49,982
-43,601
-37,234
-30,923
-24,696
-18,568
-12,549
-6,642
-0,845
4,852
10,457
15,97
21,397
26,736
31,993
37,173
42,281
47,32
52,29
57,188
62,009
66,749
71,4
75,951
80,394
84,714
88,902
92,949
96,844
100,579
104,144
107,526
110,716
113,702
116,472
119,014
121,313
123,357
125,132
126,624
127,822
128,713
129,287
129,534
129,445
129,012
128,228
127,089
125,592
123,733
121,513
118,934
115,998
112,712
109,082
105,117
100,829
96,23
91,334
86,157
80,716
75,032
69,123
63,012
56,721
50,275
43,698
37,017
30,259
23,449
16,615
9,784
2,982
-3,764
-10,429
-16,988
-23,419
-29,699
-35,806
-41,72
-47,424
-52,901
-58,134
-63,112
-67,822
-72,254
-76,402
-80,259
-83,821
-87,085
-90,05
-92,719
-95,092
-97,176
-98,974
-100,495
-101,748
-102,742
-103,488
-104
-104,289
-104,37
-104,256
-103,963
-103,505
-102,896
-102,151
-101,286
-100,314
-99,251
-98,11
-96,904
-95,647
-94,351
-93,029
-91,691
-90,348
-89,01
-87,686
-86,385
-85,113
-83,879
-82,689
-81,548
-80,461
-79,433
-78,467
-77,565
-76,729
-75,959
-75,258
-74,624
-74,056
-73,555
-73,12
-72,748
-72,438
-72,189
-71,999
-71,866
-71,789
-71,764
-71,79
-71,865
-71,986
-72,152
-72,36
-72,609
-72,895
-73,217
-73,572
-73,957
-74,37
-74,807
-75,265
-75,742
-76,233
-76,738
-77,251
-77,772
-78,298
-78,827
-79,355
-79,882
-80,405
-80,921
-81,428
-81,924
-82,407
-82,876
-83,327
-83,759
-84,17
-84,559
-84,923
-85,261
-85,571
-85,851
-86,101
-86,318
-86,502
-86,655
-86,775
-86,866
-86,928
-86,965
-86,98
-86,975
-86,953
-86,919
-86,874
-86,823
-86,77
-86,717
-86,669
-86,631
-86,607
-86,603
-86,624
-86,673
-86,756
-86,876
-87,039
-87,248
-87,507
-87,821
-88,194
-88,629
-89,131
-89,705
-90,353
-91,078
-91,881
-92,762
-93,72
-94,752
-95,854
-97,019
-98,242
-99,518
-100,839
-102,201
-103,596
-105,019
-106,465
-107,928
-109,401
-110,875
-112,337
-113,775
-115,176
-116,525
-117,809
-119,014
-120,125
-121,131
-122,023
-122,794
-123,436
-123,935
-124,278
-124,444
-124,422
-124,208
-123,796
-123,191
-122,405
-121,457
-120,384
-119,225
-118,009
-116,755
-115,473
-114,157
-112,808
-111,423
-109,994
-108,531
-107,039
-105,515
-103,97
-102,408
-100,811
-99,153
-97,375
-95,407
-93,214
-90,776
-88,096
-85,213
-82,173
-79,045
-75,928
-72,892
-70,001
-67,32
-64,88
-62,712
-60,87
-59,388
-58,33
-57,783
-57,79
-58,378
-59,57
-61,312
-63,526
-66,092
-68,834
-71,606
-74,297
-76,771
-78,914
-80,692
-82,128
-83,345
-84,528
-85,771
-87,111
-88,652
-90,559
-92,859
-95,421
-97,954
-100,019
-101,336
-101,855
-101,363
-99,422
-95,89
-90,902
-84,855
-78,512
-72,386
-66,65
-61,799
-58,739
-58,19
-60,617
-66,1
-74,284
-84,038
-93,362
-100,216
-101,762
-97,643
-90,746
-81,134
-66,667
-39,766
13,234
99,812
219,077
360,918
507,205
644,234
766,614
877,328
982,183
1080,612
1164,314
1215,858
1218,521
1165,648
1059,307
913,951
749,207
581,587
426,593
295,028
192,85
122,165
79,423
56,751
44,697
37,541
33,34
32,522
37,387
47,048
58,331
68,639
75,075
76,307
72,793
65,152
54,495
42,318
29,792
17,576
6,25
-3,632
-11,676
-17,446
-20,917
-22,607
-23,056
-22,642
-21,721
-20,653
-19,861
-19,927
-21,15
-23,467
-26,719
-30,682
-35,137
-39,891
-44,66
-49,04
-52,719
-55,547
-57,46
-58,483
-58,651
-57,96
-56,443
-54,174
-51,232
-47,693
-43,62
-39,053
-34,041
-28,658
-22,986
-17,117
-11,143
-5,127
0,887
6,861
12,772
18,6
24,328
29,954
35,484
40,918
46,254
51,487
56,61
61,621
66,521
71,315
76,004
80,588
85,062
89,42
93,656
97,764
101,734
105,556
109,216
112,705
116,012
119,131
122,053
124,769
127,271
129,548
131,593
133,396
134,946
136,233
137,246
137,974
138,407
138,535
138,347
137,836
136,993
135,808
134,277
132,393
130,151
127,548
124,584
121,257
117,569
113,525
109,129
104,389
99,314
93,913
88,202
82,193
75,902
69,349
62,553
55,535
48,317
40,925
33,383
25,719
17,959
10,134
2,271
-5,599
-13,447
-21,242
-28,953
-36,552
-44,009
-51,295
-58,382
-65,245
-71,858
-78,197
-84,241
-89,97
-95,365
-100,411
-105,094
-109,402
-113,325
-116,857
-119,992
-122,728
-125,063
-127,002
-128,546
-129,703
-130,482
-130,892
-130,947
-130,66
-130,047
-129,124
-127,911
-126,427
-124,692
-122,728
-120,558
-118,205
-115,691
-113,04
-110,275
-107,42
-104,496
-101,527
-98,533
-95,535
-92,553
-89,605
-86,708
-83,88
-81,135
-78,488
-75,951
-73,536
-71,252
-69,108
-67,111
-65,267
-63,58
-62,053
-60,689
-59,488
-58,45
-57,573
-56,856
-56,295
-55,887
-55,625
-55,505
-55,52
-55,663
-55,928
-56,307
-56,793
-57,378
-58,055
-58,817
-59,656
-60,566
-61,538
-62,566
-63,643
-64,763
-65,919
-67,106
-68,316
-69,545
-70,787
-72,037
-73,289
-74,539
-75,782
-77,012
-78,225
-79,417
-80,584
-81,721
-82,824
-83,89
-84,915
-85,896
-86,829
-87,712
-88,542
-89,314
-90,026
-90,675
-91,258
-91,77
-92,21
-92,574
-92,859
-93,062
-93,182
-93,214
-93,157
-93,009
-92,77
-92,437
-92,01
-91,49
-90,878
-90,177
-89,388
-88,516
-87,562
-86,532
-85,429
-84,26
-83,027
-81,738
-80,398
-79,012
-77,587
-76,131
-74,649
-73,149
-71,639
-70,125
-68,616
-67,119
-65,643
-64,196
-62,786
-61,422
-60,111
-58,863
-57,684
-56,582
-55,563
-54,632
-53,794
-53,052
-52,407
-51,856
-51,399
-51,034
-50,759
-50,569
-50,461
-50,43
-50,473
-50,586
-50,766
-51,004
-51,295
-51,628
-51,994
-52,386
-52,791
-53,196
-53,591
-53,959
-54,289
-54,571
-54,79
-54,931
-54,974
-54,897
-54,684
-54,328
-53,824
-53,172
-52,379
-51,456
-50,428
-49,331
-48,19
-47,031
-45,876
-44,734
-43,63
-42,584
-41,609
-40,727
-39,948
-39,258
-38,644
-38,081
-37,516
-36,903
-36,177
-35,25
-34,07
-32,593
-30,783
-28,634
-26,136
-23,29
-20,13
-16,689
-13,01
-9,178
-5,287
-1,448
2,182
5,47
8,288
10,484
11,964
12,652
12,472
11,395
9,396
6,477
2,702
-1,861
-7,134
-12,988
-19,287
-25,848
-32,406
-38,816
-45,04
-51,083
-57,082
-63,124
-69,16
-75,273
-81,632
-88,196
-94,792
-101,007
-106,123
-109,736
-111,828
-112,253
-110,755
-107,299
-101,992
-95,412
-88,665
-82,376
-76,645
-71,764
-68,335
-66,88
-67,793
-71,026
-75,871
-81,928
-89,275
-96,472
-100,297
-97,786
-85,921
-65,016
-39,267
-9,072
28,473
81,356
162,484
275,835
415,869
569,949
718,487
850,254
964,984
1064,341
1151,726
1222,928
1261,008
1251,416
1185,626
1063,395
903,065
727,98
559,303
417,702
308,736
228,638
171,203
124,382
82,757
46,944
18,281
1,221
-3,778
-0,52
6,878
13,797
18,166
20,18
20,202
18,604
15,352
10,64
5,383
0,527
-3,575
-6,951
-9,857
-12,266
-13,59
-13,624
-12,654
-11,062
-9,191
-7,205
-5,108
-3,142
-1,923
-1,825
-2,901
-5,058
-8,019
-11,541
-15,461
-19,5
-23,231
-26,315
-28,555
-29,857
-30,263
-29,827
-28,57
-26,545
-23,838
-20,541
-16,743
-12,522
-7,936
-3,045
2,066
7,308
12,585
17,808
22,913
27,863
32,631
37,207
41,587
45,772
49,771
53,603
57,282
60,817
64,219
67,492
70,647
73,698
76,659
79,546
82,366
85,126
87,83
90,478
93,073
95,612
98,093
100,509
102,856
105,132
107,333
109,458
111,501
113,457
115,318
117,079
118,73
120,262
121,663
122,923
124,028
124,966
125,725
126,292
126,655
126,801
126,718
126,396
125,825
124,995
123,899
122,53
120,882
118,953
116,74
114,242
111,46
108,398
105,058
101,447
97,572
93,443
89,068
84,46
79,632
74,598
69,374
63,976
58,421
52,729
46,919
41,012
35,028
28,987
22,913
16,826
10,747
4,697
-1,304
-7,236
-13,081
-18,821
-24,44
-29,922
-35,254
-40,424
-45,419
-50,232
-54,854
-59,278
-63,499
-67,513
-71,318
-74,913
-78,298
-81,473
-84,442
-87,209
-89,776
-92,15
-94,338
-96,345
-98,18
-99,852
-101,369
-102,741
-103,977
-105,089
-106,085
-106,978
-107,776
-108,491
-109,131
-109,707
-110,227
-110,7
-111,135
-111,537
-111,915
-112,274
-112,619
-112,956
-113,29
-113,623
-113,958
-114,3
-114,649
-115,008
-115,377
-115,759
-116,153
-116,561
-116,982
-117,416
-117,863
-118,322
-118,792
-119,272
-119,76
-120,255
-120,755
-121,258
-121,763
-122,267
-122,768
-123,265
-123,757
-124,242
-124,718
-125,185
-125,642
-126,088
-126,521
-126,943
-127,352
-127,748
-128,13
-128,499
-128,855
-129,196
-129,523
-129,836
-130,133
-130,414
-130,678
-130,925
-131,152
-131,361
-131,548
-131,715
-131,859
-131,98
-132,077
-132,15
-132,198
-132,22
-132,217
-132,187
-132,13
-132,045
-131,933
-131,792
-131,623
-131,425
-131,198
-130,943
-130,66
-130,349
-130,011
-129,646
-129,256
-128,842
-128,406
-127,95
-127,476
-126,987
-126,486
-125,978
-125,465
-124,951
-124,442
-123,94
-123,45
-122,976
-122,522
-122,092
-121,69
-121,319
-120,983
-120,685
-120,429
-120,218
-120,054
-119,939
-119,876
-119,865
-119,908
-120,005
-120,154
-120,356
-120,609
-120,912
-121,26
-121,652
-122,084
-122,55
-123,046
-123,566
-124,102
-124,648
-125,194
-125,733
-126,255
-126,753
-127,216
-127,637
-128,005
-128,312
-128,548
-128,706
-128,777
-128,754
-128,629
-128,395
-128,049
-127,585
-127
-126,292
-125,46
-124,505
-123,43
-122,24
-120,943
-119,549
-118,069
-116,514
-114,897
-113,23
-111,524
-109,793
-108,051
-106,309
-104,585
-102,895
-101,258
-99,698
-98,232
-96,878
-95,647
-94,544
-93,573
-92,742
-92,06
-91,543
-91,21
-91,073
-91,15
-91,46
-92,006
-92,792
-93,797
-94,974
-96,283
-97,684
-99,152
-100,687
-102,269
-103,851
-105,377
-106,761
-107,922
-108,834
-109,425
-109,587
-109,322
-108,658
-107,75
-106,933
-106,374
-106,076
-106,078
-106,363
-106,837
-107,482
-108,03
-107,976
-107,295
-106,248
-105,153
-104,448
-104,405
-105,086
-106,65
-109,445
-113,267
-117,291
-121,462
-125,752
-129,174
-131,681
-131,52
-126,624
-120,016
-114,363
-112,178
-114,96
-117,06
-113,264
-102,722
-87,587
-71,256
-52,46
-20,824
39,848
137,942
270,696
424,234
575,665
710,922
828,281
930,803
1024,568
1107,743
1163,992
1175,279
1129,158
1021,486
866,753
689,363
512,297
357,377
234,971
144,146
80,457
36,175
6,496
-9,165
-11,132
-1,537
12,62
22,989
24,113
15,99
5,29
-1,24
-0,911
4,5
9,535
10,434
6,866
0,287
-7,069
-14,097
-20,718
-26,531
-30,954
-33,63
-34,534
-33,993
-32,344
-29,773
-26,489
-23,03
-20,173
-18,417
-17,901
-18,527
-20,049
-22,274
-25,048
-28,068
-30,91
-33,246
-34,857
-35,652
-35,663
-34,911
-33,4
-31,169
-28,276
-24,789
-20,786
-16,329
-11,46
-6,234
-0,71
5,039
10,934
16,896
22,856
28,763
34,586
40,303
45,898
51,362
56,69
61,883
66,954
71,909
76,751
81,485
86,108
90,625
95,047
99,378
103,624
107,785
111,858
115,841
119,73
123,519
127,2
130,766
134,205
137,508
140,667
143,674
146,522
149,203
151,705
154,021
156,142
158,058
159,757
161,23
162,463
163,447
164,17
164,621
164,791
164,669
164,246
163,515
162,469
161,102
159,408
157,387
155,035
152,353
149,343
146,009
142,356
138,391
134,124
129,564
124,724
119,619
114,262
108,671
102,863
96,857
90,674
84,335
77,861
71,275
64,602
57,864
51,086
44,293
37,51
30,761
24,071
17,463
10,96
4,584
-1,643
-7,701
-13,572
-19,237
-24,682
-29,891
-34,852
-39,554
-43,987
-48,143
-52,017
-55,603
-58,9
-61,906
-64,622
-67,048
-69,189
-71,048
-72,633
-73,95
-75,008
-75,816
-76,385
-76,725
-76,85
-76,772
-76,504
-76,061
-75,456
-74,706
-73,824
-72,825
-71,725
-70,537
-69,276
-67,955
-66,589
-65,191
-63,772
-62,346
-60,922
-59,513
-58,128
-56,777
-55,469
-54,213
-53,016
-51,885
-50,828
-49,848
-48,952
-48,145
-47,428
-46,807
-46,283
-45,857
-45,531
-45,304
-45,177
-45,148
-45,214
-45,373
-45,623
-45,959
-46,378
-46,875
-47,445
-48,083
-48,785
-49,543
-50,353
-51,207
-52,098
-53,019
-53,963
-54,921
-55,884
-56,843
-57,79
-58,714
-59,607
-60,457
-61,256
-61,993
-62,657
-63,24
-63,73
-64,119
-64,398
-64,557
-64,588
-64,486
-64,243
-63,854
-63,314
-62,619
-61,767
-60,755
-59,58
-58,243
-56,743
-55,082
-53,262
-51,287
-49,162
-46,893
-44,492
-41,971
-39,343
-36,623
-33,828
-30,975
-28,085
-25,177
-22,274
-19,396
-16,564
-13,801
-11,13
-8,575
-6,16
-3,905
-1,829
0,052
1,723
3,168
4,371
5,327
6,031
6,477
6,658
6,557
6,161
5,465
4,469
3,175
1,593
-0,27
-2,394
-4,74
-7,269
-9,932
-12,678
-15,471
-18,276
-21,055
-23,77
-26,359
-28,757
-30,904
-32,748
-34,248
-35,392
-36,172
-36,582
-36,705
-36,692
-36,772
-37,247
-38,377
-40,327
-43,18
-47,038
-51,898
-57,546
-63,564
-69,222
-73,695
-76,359
-76,876
-74,987
-70,614
-64,071
-55,993
-47,603
-40,512
-36,226
-35,879
-40,216
-49,766
-63,785
-79,914
-95,276
-106,364
-111,369
-112,106
-109,35
-100,769
-80,215
-36,264
39,883
148,808
284,329
434,796
588,677
738,223
877,292
996,767
1085,323
1132,909
1131,265
1081,589
990,71
864,809
716,357
556,827
399,632
264,198
160,006
89,797
48,73
21,569
-0,399
-19,912
-36,242
-43,161
-39,478
-28,879
-15,497
-4,672
0,873
1,333
-2,915
-11,063
-21,927
-34,344
-46,925
-58,088
-66,72
-72,417
-75,011
-74,676
-71,981
-67,575
-62,238
-56,915
-52,409
-49,178
-47,522
-47,504
-48,977
-51,768
-55,611
-60,136
-64,963
-69,767
-74,285
-78,318
-81,719
-84,377
-86,222
-87,226
-87,403
-86,776
-85,37
-83,221
-80,38
-76,9
-72,851
-68,302
-63,322
-57,99
-52,392
-46,611
-40,734
-34,824
-28,925
-23,071
-17,284
-11,572
-5,945
-0,398
5,082
10,502
15,866
21,176
26,432
31,637
36,792
41,902
46,965
51,98
56,942
61,844
66,677
71,43
76,09
80,644
85,075
89,367
93,507
97,482
101,28
104,888
108,293
111,482
114,442
117,161
119,624
121,818
123,727
125,337
126,636
127,609
128,244
128,53
128,456
128,012
127,191
125,985
124,39
122,402
120,019
117,241
114,072
110,514
106,574
102,26
97,583
92,554
87,188
81,5
75,508
69,231
62,687
55,9
48,891
41,683
34,3
26,769
19,114
11,363
3,542
-4,321
-12,199
-20,066
-27,893
-35,654
-43,325
-50,879
-58,292
-65,542
-72,607
-79,466
-86,1
-92,491
-98,625
-104,486
-110,064
-115,347
-120,328
-125
-129,359
-133,401
-137,125
-140,532
-143,623
-146,401
-148,871
-151,039
-152,911
-154,495
-155,801
-156,837
-157,613
-158,142
-158,434
-158,501
-158,355
-158,01
-157,478
-156,772
-155,905
-154,89
-153,74
-152,469
-151,088
-149,609
-148,045
-146,405
-144,701
-142,942
-141,138
-139,296
-137,426
-135,534
-133,626
-131,71
-129,791
-127,872
-125,96
-124,058
-122,17
-120,299
-118,448
-116,621
-114,821
-113,051
-111,313
-109,61
-107,945
-106,321
-104,74
-103,203
-101,714
-100,273
-98,882
-97,544
-96,26
-95,033
-93,863
-92,754
-91,706
-90,722
-89,803
-88,951
-88,167
-87,453
-86,81
-86,24
-85,744
-85,323
-84,979
-84,712
-84,521
-84,409
-84,372
-84,408
-84,516
-84,691
-84,929
-85,228
-85,579
-85,978
-86,418
-86,894
-87,402
-87,932
-88,479
-89,036
-89,594
-90,147
-90,688
-91,205
-91,687
-92,125
-92,509
-92,832
-93,087
-93,264
-93,357
-93,357
-93,261
-93,069
-92,775
-92,369
-91,845
-91,191
-90,411
-89,524
-88,541
-87,473
-86,334
-85,139
-83,909
-82,674
-81,446
-80,221
-78,997
-77,766
-76,539
-75,346
-74,211
-73,164
-72,216
-71,355
-70,585
-69,922
-69,362
-68,892
-68,493
-68,129
-67,817
-67,624
-67,599
-67,8
-68,255
-68,953
-69,894
-71,071
-72,465
-74,071
-75,866
-77,803
-79,873
-82,083
-84,433
-86,946
-89,566
-92,163
-94,639
-96,892
-98,839
-100,465
-101,758
-102,724
-103,437
-103,97
-104,389
-104,805
-105,29
-105,888
-106,673
-107,691
-109,018
-110,867
-113,473
-116,986
-121,485
-126,858
-132,769
-138,847
-144,647
-149,496
-152,642
-153,546
-151,893
-147,772
-141,944
-135,408
-129,16
-124,694
-122,744
-122,122
-121,406
-118,8
-113,987
-111,02
-112,975
-118,637
-120,898
-103,663
-50,307
48,066
190,091
360,168
534,268
689,487
809,738
891,074
941,16
972,632
994,087
1004,629
993,923
947,241
855,326
721,825
562,73
400,492
258,251
149,649
75,642
31,542
6,014
-10,537
-19,897
-25,078
-25,483
-20,632
-15,261
-9,189
-2,959
2,176
8,113
12,29
12,504
9,096
1,511
-8,562
-18,922
-29,012
-37,951
-44,723
-49,063
-50,892
-50,333
-48,011
-44,607
-40,524
-36,342
-32,896
-30,629
-29,732
-30,229
-31,811
-34,218
-37,297
-40,755
-44,212
-47,368
-49,96
-51,857
-53,097
-53,558
-53,079
-51,768
-49,657
-46,763
-43,429
-38,949
-32,619
-25,563
-18,165
-12,441
-10,807
-10,744
-10,59
-7,843
0,984
12,728
24,714
35,108
40,896
44,216
47,242
50,464
55,212
60,718
65,993
71,222
76,281
81,238
86,295
91,318
96,199
100,965
105,618
110,137
114,516
118,751
122,835
126,772
130,573
134,218
137,688
140,974
144,066
146,953
149,625
152,069
154,273
156,225
157,915
159,332
160,466
161,304
161,838
162,059
161,957
161,527
160,761
159,655
158,206
156,411
154,27
151,783
148,954
145,787
142,286
138,461
134,321
129,874
125,136
120,117
114,835
109,304
103,542
97,568
91,401
85,061
78,569
71,947
65,216
58,4
51,521
44,603
37,669
30,742
23,845
16,999
10,226
3,547
-3,017
-9,449
-15,73
-21,843
-27,774
-33,508
-39,032
-44,336
-49,411
-54,247
-58,839
-63,182
-67,273
-71,108
-74,687
-78,012
-81,082
-83,901
-86,473
-88,803
-90,896
-92,759
-94,4
-95,826
-97,048
-98,075
-98,915
-99,58
-100,079
-100,424
-100,625
-100,693
-100,638
-100,472
-100,206
-99,85
-99,414
-98,908
-98,343
-97,727
-97,069
-96,377
-95,657
-94,918
-94,165
-93,404
-92,641
-91,881
-91,129
-90,388
-89,662
-88,954
-88,266
-87,601
-86,96
-86,344
-85,755
-85,194
-84,661
-84,158
-83,685
-83,244
-82,836
-82,462
-82,122
-81,816
-81,544
-81,306
-81,101
-80,93
-80,791
-80,685
-80,611
-80,57
-80,562
-80,589
-80,65
-80,746
-80,876
-81,042
-81,244
-81,482
-81,756
-82,068
-82,417
-82,807
-83,237
-83,71
-84,224
-84,78
-85,376
-86,011
-86,683
-87,386
-88,116
-88,867
-89,635
-90,417
-91,207
-92,003
-92,8
-93,596
-94,391
-95,181
-95,96
-96,723
-97,461
-98,164
-98,825
-99,433
-99,977
-100,447
-100,834
-101,132
-101,339
-101,45
-101,457
-101,347
-101,105
-100,721
-100,196
-99,529
-98,721
-97,785
-96,737
-95,609
-94,452
-93,298
-92,167
-91,074
-90,015
-88,99
-88,004
-87,057
-86,145
-85,268
-84,415
-83,586
-82,791
-82,015
-81,229
-80,379
-79,376
-78,167
-76,737
-75,077
-73,211
-71,175
-69,003
-66,772
-64,578
-62,489
-60,577
-58,893
-57,453
-56,313
-55,538
-55,201
-55,411
-56,229
-57,67
-59,749
-62,452
-65,738
-69,546
-73,744
-78,152
-82,64
-87,08
-91,376
-95,459
-99,189
-102,496
-105,409
-107,983
-110,406
-112,87
-115,443
-118,287
-121,649
-125,512
-129,758
-134,084
-137,737
-140,134
-140,904
-139,391
-135,066
-127,902
-118,043
-106,182
-93,709
-81,635
-70,933
-63,145
-59,437
-60,366
-66,296
-76,74
-90,5
-106,82
-123,276
-135,336
-139,505
-132,523
-114,462
-89,68
-58,521
-18,713
36,012
117,207
228,202
365,69
521,127
676,748
820,283
943,952
1040,223
1108,764
1144,102
1137,354
1084,75
982,373
838,857
674,459
510,29
369,864
264,547
191,822
143,741
106,428
72,284
41,715
17,415
4,807
4,69
12,889
24,623
34,594
39,972
40,712
37,172
29,867
19,643
7,57
-4,928
-16,142
-24,795
-30,511
-33,27
-33,088
-30,312
-25,528
-19,508
-13,33
-7,964
-3,845
-1,174
-0,093
-0,554
-2,464
-5,652
-9,716
-14,219
-18,88
-23,491
-27,885
-31,949
-35,529
-38,458
-40,672
-42,154
-42,901
-42,93
-42,25
-40,868
-38,833
-36,221
-33,109
-29,578
-25,702
-21,54
-17,163
-12,644
-8,056
-3,471
1,061
5,509
9,852
14,078
18,183
22,162
26,024
29,785
33,457
37,049
40,568
44,013
47,39
50,702
53,954
57,151
60,292
63,376
66,399
69,356
72,243
75,052
77,774
80,398
82,915
85,315
87,592
89,737
91,743
93,601
95,301
96,834
98,192
99,364
100,339
101,106
101,654
101,974
102,056
101,891
101,471
100,79
99,841
98,621
97,125
95,352
93,301
90,973
88,371
85,498
82,359
78,963
75,317
71,431
67,318
62,991
58,463
53,75
48,869
43,838
38,675
33,401
28,036
22,6
17,117
11,608
6,097
0,606
-4,841
-10,223
-15,517
-20,701
-25,756
-30,661
-35,399
-39,953
-44,306
-48,444
-52,355
-56,027
-59,451
-62,62
-65,528
-68,17
-70,543
-72,649
-74,487
-76,061
-77,374
-78,433
-79,244
-79,816
-80,16
-80,285
-80,205
-79,933
-79,482
-78,868
-78,106
-77,212
-76,202
-75,092
-73,9
-72,641
-71,332
-69,987
-68,623
-67,254
-65,893
-64,555
-63,252
-61,994
-60,792
-59,656
-58,594
-57,611
-56,715
-55,91
-55,199
-54,585
-54,07
-53,654
-53,338
-53,119
-52,996
-52,965
-53,022
-53,163
-53,382
-53,673
-54,03
-54,447
-54,916
-55,43
-55,982
-56,565
-57,171
-57,793
-58,424
-59,057
-59,685
-60,302
-60,902
-61,481
-62,033
-62,555
-63,045
-63,501
-63,921
-64,303
-64,648
-64,956
-65,228
-65,463
-65,664
-65,833
-65,971
-66,083
-66,171
-66,241
-66,295
-66,339
-66,377
-66,414
-66,454
-66,502
-66,561
-66,637
-66,734
-66,857
-67,011
-67,2
-67,428
-67,699
-68,017
-68,383
-68,799
-69,264
-69,778
-70,337
-70,941
-71,587
-72,268
-72,982
-73,723
-74,49
-75,277
-76,081
-76,896
-77,717
-78,539
-79,356
-80,16
-80,942
-81,691
-82,396
-83,048
-83,64
-84,164
-84,615
-84,981
-85,258
-85,442
-85,529
-85,514
-85,384
-85,122
-84,721
-84,185
-83,529
-82,775
-81,942
-81,044
-80,105
-79,157
-78,224
-77,318
-76,436
-75,552
-74,656
-73,754
-72,865
-72,029
-71,263
-70,561
-69,913
-69,306
-68,722
-68,154
-67,568
-66,899
-66,122
-65,243
-64,314
-63,441
-62,692
-62,103
-61,696
-61,465
-61,416
-61,577
-61,946
-62,512
-63,271
-64,21
-65,357
-66,783
-68,502
-70,484
-72,655
-74,858
-76,967
-78,886
-80,518
-81,825
-82,813
-83,476
-83,836
-83,98
-84,016
-84,159
-84,7
-85,756
-87,328
-89,402
-92
-95,227
-99,127
-103,392
-107,33
-110,344
-112,129
-112,628
-111,859
-109,597
-105,607
-100,188
-94,325
-89,187
-85,768
-84,572
-85,74
-89,841
-96,49
-103,793
-109,725
-111,345
-108,136
-102,67
-94,01
-79,082
-50,333
4,077
87,824
198,613
328,305
463,096
595,93
722,23
838,921
944,342
1030,582
1090,434
1115,682
1098,391
1036,909
930,278
787,519
627,041
469,339
338,337
245,13
186,419
151,719
123,625
93,003
60,144
28,486
4,957
-8,547
-15,234
-18,661
-22,878
-29,654
-38,054
-46,818
-54,823
-61,29
-65,953
-68,509
-68,595
-66,175
-61,922
-56,946
-52,147
-48,017
-44,623
-42,045
-40,505
-40,143
-40,748
-41,778
-42,803
-43,74
-44,847
-46,334
-48,189
-50,299
-52,557
-54,993
-57,61
-60,236
-62,529
-64,163
-64,954
-64,842
-63,855
-62,013
-59,32
-55,827
-51,632
-46,859
-41,614
-35,978
-30,002
-23,741
-17,267
-10,664
-4,016
2,598
9,127
15,538
21,807
27,924
33,881
39,676
45,318
50,818
56,184
61,42
66,523
71,491
76,324
81,027
85,606
90,066
94,411
98,636
102,741
106,721
110,572
114,288
117,862
121,285
124,551
127,653
130,589
133,354
135,944
138,352
140,572
142,6
144,427
146,048
147,455
148,639
149,594
150,312
150,788
151,013
150,984
150,694
150,138
149,314
148,217
146,846
145,2
143,278
141,083
138,616
135,882
132,884
129,631
126,128
122,385
118,412
114,219
109,819
105,225
100,451
95,514
90,429
85,214
79,886
74,464
68,966
63,413
57,823
52,218
46,616
41,037
35,5
30,025
24,63
19,332
14,148
9,094
4,185
-0,565
-5,145
-9,543
-13,748
-17,754
-21,551
-25,135
-28,5
-31,644
-34,565
-37,262
-39,736
-41,989
-44,025
-45,849
-47,466
-48,883
-50,108
-51,149
-52,017
-52,72
-53,27
-53,679
-53,958
-54,119
-54,175
-54,138
-54,022
-53,839
-53,602
-53,322
-53,011
-52,681
-52,342
-52,005
-51,68
-51,376
-51,102
-50,865
-50,672
-50,532
-50,448
-50,427
-50,473
-50,59
-50,78
-51,045
-51,387
-51,807
-52,305
-52,88
-53,531
-54,257
-55,055
-55,923
-56,856
-57,851
-58,903
-60,007
-61,159
-62,352
-63,582
-64,843
-66,13
-67,437
-68,759
-70,09
-71,426
-72,761
-74,091
-75,41
-76,714
-77,998
-79,257
-80,488
-81,686
-82,849
-83,972
-85,053
-86,089
-87,078
-88,016
-88,903
-89,736
-90,515
-91,238
-91,906
-92,52
-93,08
-93,588
-94,048
-94,462
-94,833
-95,166
-95,462
-95,727
-95,963
-96,176
-96,368
-96,545
-96,711
-96,869
-97,026
-97,186
-97,355
-97,538
-97,739
-97,965
-98,219
-98,507
-98,835
-99,206
-99,626
-100,099
-100,63
-101,223
-101,882
-102,61
-103,409
-104,279
-105,22
-106,231
-107,306
-108,442
-109,634
-110,876
-112,162
-113,488
-114,847
-116,233
-117,642
-119,069
-120,507
-121,947
-123,38
-124,793
-126,173
-127,509
-128,784
-129,986
-131,098
-132,105
-132,996
-133,76
-134,384
-134,851
-135,139
-135,232
-135,123
-134,807
-134,285
-133,561
-132,645
-131,553
-130,319
-128,977
-127,557
-126,086
-124,57
-123,017
-121,439
-119,847
-118,256
-116,669
-115,063
-113,412
-111,695
-109,89
-107,971
-105,899
-103,599
-101,009
-98,088
-94,809
-91,183
-87,232
-82,972
-78,436
-73,675
-68,769
-63,84
-59,02
-54,412
-50,123
-46,25
-42,903
-40,229
-38,335
-37,287
-37,125
-37,843
-39,428
-41,869
-45,135
-49,14
-53,751
-58,788
-64,056
-69,391
-74,652
-79,697
-84,34
-88,457
-92,037
-95,154
-98,009
-100,8
-103,602
-106,56
-109,897
-113,62
-117,654
-121,784
-125,397
-128,013
-129,37
-128,925
-126,198
-121,148
-113,781
-104,5
-94,481
-84,666
-75,884
-69,497
-66,736
-68,492
-75,598
-88,105
-104,13
-121,016
-136,304
-147,338
-153,938
-157,043
-154,329
-140,765
-107,567
-45,379
48,861
170,754
309,191
450,759
584,47
704,081
808,491
898,691
976,086
1040,071
1084,31
1097,893
1069,595
991,488
866,733
711,947
548,701
399,698
280,526
192,592
131,023
86,52
48,842
15,047
-14,694
-38,405
-52,094
-55,682
-51,807
-43,699
-35,244
-28,051
-21,966
-16,843
-12,758
-10,393
-10,233
-11,949
-14,903
-18,794
-23,526
-29,051
-34,963
-40,235
-44,182
-46,723
-48,017
-48,318
-47,859
-46,781
-45,464
-44,675
-44,89
-46,222
-48,633
-51,85
-55,585
-59,642
-63,687
-67,266
-70,095
-72,028
-73
-73,094
-72,374
-70,86
-68,63
-65,778
-62,377
-58,503
-54,213
-49,54
-44,55
-39,324
-33,941
-28,491
-23,033
-17,602
-12,229
-6,931
-1,714
3,414
8,456
13,421
18,309
23,121
27,853
32,502
37,067
41,553
45,964
50,304
54,574
58,77
62,889
66,922
70,862
74,697
78,417
82,008
85,46
88,764
91,91
94,89
97,697
100,319
102,747
104,973
106,985
108,774
110,328
111,637
112,691
113,479
113,994
114,227
114,17
113,818
113,165
112,206
110,938
109,36
107,471
105,272
102,766
99,958
96,854
93,461
89,788
85,847
81,651
77,212
72,546
67,668
62,598
57,353
51,952
46,417
40,769
35,029
29,22
23,366
17,49
11,615
5,766
-0,037
-5,77
-11,408
-16,927
-22,305
-27,52
-32,559
-37,401
-42,022
-46,411
-50,568
-54,494
-58,191
-61,654
-64,853
-67,778
-70,451
-72,855
-74,937
-76,66
-77,98
-78,894
-79,474
-79,752
-79,668
-79,291
-78,892
-78,555
-78,208
-77,898
-77,383
-77,109
-78,715
-82,016
-85,478
-86,8
-81,415
-69,211
-54,905
-43,055
-40,15
-47,172
-57,897
-67,48
-70,856
-66,705
-59,666
-52,732
-47,783
-45,586
-44,278
-42,906
-41,565
-40,176
-39,015
-38,183
-37,421
-36,644
-35,895
-35,17
-34,453
-33,753
-33,078
-32,449
-31,907
-31,465
-31,098
-30,797
-30,559
-30,38
-30,258
-30,187
-30,157
-30,162
-30,199
-30,267
-30,362
-30,479
-30,616
-30,769
-30,934
-31,11
-31,294
-31,484
-31,678
-31,874
-32,07
-32,265
-32,457
-32,645
-32,827
-33,003
-33,17
-33,327
-33,473
-33,606
-33,723
-33,825
-33,908
-33,973
-34,018
-34,043
-34,048
-34,033
-33,999
-33,947
-33,878
-33,792
-33,692
-33,579
-33,453
-33,317
-33,17
-33,015
-32,853
-32,686
-32,514
-32,339
-32,164
-31,99
-31,819
-31,653
-31,495
-31,348
-31,214
-31,098
-31,003
-30,933
-30,893
-30,888
-30,922
-30,998
-31,122
-31,296
-31,522
-31,801
-32,134
-32,518
-32,953
-33,436
-33,966
-34,54
-35,156
-35,812
-36,508
-37,241
-38,011
-38,814
-39,649
-40,509
-41,387
-42,277
-43,173
-44,064
-44,943
-45,797
-46,617
-47,397
-48,126
-48,797
-49,395
-49,902
-50,304
-50,597
-50,78
-50,857
-50,84
-50,739
-50,577
-50,388
-50,207
-50,065
-49,99
-49,988
-50,062
-50,221
-50,475
-50,838
-51,313
-51,872
-52,481
-53,113
-53,731
-54,302
-54,778
-55,072
-55,108
-54,83
-54,2
-53,222
-51,924
-50,326
-48,452
-46,345
-44,072
-41,738
-39,468
-37,349
-35,45
-33,843
-32,605
-31,857
-31,711
-32,237
-33,475
-35,433
-38,071
-41,346
-45,218
-49,579
-54,297
-59,246
-64,242
-69,148
-73,959
-78,699
-83,448
-88,374
-93,573
-99,099
-105,107
-111,682
-118,733
-126,083
-133,267
-139,635
-144,72
-148,086
-149,279
-148,089
-144,506
-138,718
-131,439
-123,654
-116,304
-110,489
-107,183
-107,082
-110,682
-118,036
-128,854
-141,76
-153,797
-161,945
-163,25
-156,561
-144,49
-128,619
-107,171
-75,403
-23,113
59,321
173,241
314,724
473,654
633,896
784,115
915,534
1018,264
1089,089
1124,35
1118,347
1073,007
990,083
872,489
731,599
578,097
424,122
285,762
172,695
88,965
34,243
-0,172
-24,072
-42,581
-58,439
-70,177
-74,681
-73,054
-68,187
-63,237
-61,629
-64,106
-69,806
-78,354
-88,854
-100,098
-111,109
-120,565
-127,314
-131,164
-132,247
-130,564
-126,439
-120,432
-113,145
-105,53
-98,548
-92,629
-88,032
-84,958
-83,368
-83,181
-84,265
-86,259
-88,755
-91,513
-94,339
-97,112
-99,79
-102,263
-104,435
-106,265
-107,706
-108,706
-109,193
-109,096
-108,381
-107,057
-105,158
-102,728
-99,816
-96,452
-92,671
-88,491
-83,908
-78,939
-73,597
-67,904
-61,909
-55,672
-49,274
-42,786
-36,257
-29,715
-23,178
-16,658
-10,161
-3,698
2,727
9,099
15,384
21,555
27,581
33,447
39,149
44,696
50,108
55,4
60,584
65,663
70,632
75,483
80,202
84,771
89,167
93,368
97,364
101,142
104,695
108,009
111,068
113,857
116,354
118,544
120,406
121,926
123,088
123,883
124,303
124,346
124,01
123,298
122,211
120,752
118,925
116,735
114,189
111,294
108,06
104,498
100,622
96,448
91,993
87,277
82,322
77,148
71,78
66,242
60,558
54,755
48,859
42,895
36,89
30,873
24,868
18,904
13,006
7,2
1,511
-4,037
-9,421
-14,621
-19,617
-24,39
-28,925
-33,205
-37,219
-40,953
-44,397
-47,543
-50,385
-52,916
-55,133
-57,035
-58,623
-59,899
-60,867
-61,532
-61,903
-61,987
-61,795
-61,336
-60,624
-59,669
-58,486
-57,089
-55,494
-53,715
-51,769
-49,672
-47,442
-45,094
-42,647
-40,115
-37,516
-34,865
-32,179
-29,471
-26,758
-24,053
-21,37
-18,722
-16,121
-13,579
-11,106
-8,713
-6,407
-4,197
-2,09
-0,091
1,794
3,561
5,207
6,727
8,121
9,386
10,522
11,529
12,408
13,161
13,788
14,294
14,681
14,954
15,116
15,172
15,127
14,985
14,753
14,437
14,04
13,571
13,035
12,437
11,785
11,083
10,337
9,553
8,736
7,892
7,023
6,136
5,235
4,323
3,406
2,486
1,567
0,654
-0,252
-1,147
-2,03
-2,897
-3,749
-4,584
-5,402
-6,202
-6,986
-7,755
-8,51
-9,253
-9,986
-10,711
-11,431
-12,149
-12,868
-13,59
-14,319
-15,058
-15,809
-16,577
-17,364
-18,171
-19,003
-19,862
-20,75
-21,671
-22,628
-23,624
-24,662
-25,744
-26,875
-28,056
-29,29
-30,578
-31,921
-33,319
-34,771
-36,275
-37,827
-39,421
-41,052
-42,716
-44,405
-46,115
-47,836
-49,563
-51,29
-53,013
-54,722
-56,409
-58,064
-59,676
-61,236
-62,733
-64,154
-65,487
-66,717
-67,834
-68,827
-69,683
-70,388
-70,922
-71,262
-71,392
-71,304
-70,995
-70,463
-69,714
-68,758
-67,617
-66,33
-64,927
-63,434
-61,87
-60,246
-58,58
-56,901
-55,234
-53,6
-52,007
-50,446
-48,903
-47,364
-45,793
-44,134
-42,319
-40,255
-37,875
-35,147
-32,048
-28,574
-24,719
-20,477
-15,866
-10,932
-5,744
-0,389
5,037
10,436
15,659
20,533
24,884
28,528
31,345
33,26
34,209
34,152
33,067
30,951
27,848
23,842
19,024
13,491
7,363
0,769
-6,108
-13,059
-19,908
-26,51
-32,772
-38,624
-44,054
-49,093
-53,822
-58,445
-63,206
-68,31
-73,938
-80,236
-87,111
-94,37
-101,868
-108,923
-114,521
-117,943
-118,364
-115,815
-111,84
-106,684
-99,727
-90,029
-75,126
-56,979
-41,47
-34,378
-41,7
-61,693
-86,296
-107,884
-120,256
-124,365
-123,364
-116,439
-97,435
-53,697
23,423
134,86
273,148
421,243
564,597
694,116
804,694
900,292
985,94
1060,929
1122,532
1159,475
1155,129
1101,112
994,314
843,082
669,529
494,291
337,756
214,412
125,574
68,73
35,738
16,482
4,855
-4,949
-15,04
-26,001
-37,719
-47,182
-53,027
-53,805
-49,683
-44,443
-40,662
-40,277
-43,761
-48,928
-54,386
-59,957
-65,61
-71,734
-78,095
-83,535
-87,493
-90,052
-91,391
-91,76
-91,331
-90,183
-88,728
-87,795
-87,889
-89,137
-91,505
-94,746
-98,63
-102,988
-107,5
-111,696
-115,219
-117,864
-119,545
-120,307
-120,204
-119,252
-117,504
-115,042
-111,951
-108,307
-104,175
-99,595
-94,62
-89,323
-83,787
-78,099
-72,345
-66,584
-60,853
-55,178
-49,573
-44,044
-38,596
-33,226
-27,922
-22,677
-17,488
-12,355
-7,279
-2,26
2,71
7,636
12,523
17,373
22,181
26,942
31,649
36,295
40,869
45,358
49,749
54,027
58,181
62,199
66,071
69,784
73,324
76,678
79,833
82,774
85,488
87,959
90,171
92,11
93,762
95,112
96,149
96,859
97,233
97,26
96,932
96,244
95,19
93,767
91,973
89,808
87,276
84,379
81,124
77,519
73,574
69,301
64,714
59,828
54,662
49,233
43,563
37,673
31,585
25,323
18,913
12,378
5,746
-0,958
-7,706
-14,471
-21,228
-27,949
-34,608
-41,182
-47,646
-53,977
-60,154
-66,156
-71,966
-77,565
-82,938
-88,072
-92,954
-97,575
-101,925
-105,998
-109,79
-113,298
-116,521
-119,46
-122,117
-124,497
-126,605
-128,448
-130,035
-131,374
-132,477
-133,354
-134,018
-134,481
-134,756
-134,858
-134,799
-134,595
-134,259
-133,805
-133,246
-132,596
-131,867
-131,072
-130,222
-129,328
-128,4
-127,449
-126,483
-125,51
-124,537
-123,57
-122,616
-121,678
-120,76
-119,866
-118,996
-118,153
-117,336
-116,546
-115,782
-115,043
-114,326
-113,629
-112,951
-112,288
-111,637
-110,996
-110,361
-109,73
-109,099
-108,466
-107,829
-107,185
-106,533
-105,872
-105,201
-104,518
-103,824
-103,119
-102,404
-101,68
-100,947
-100,208
-99,464
-98,717
-97,97
-97,226
-96,488
-95,758
-95,041
-94,34
-93,659
-93,002
-92,374
-91,778
-91,219
-90,699
-90,224
-89,796
-89,418
-89,094
-88,826
-88,616
-88,465
-88,376
-88,348
-88,382
-88,477
-88,632
-88,845
-89,114
-89,435
-89,807
-90,226
-90,688
-91,191
-91,732
-92,305
-92,909
-93,54
-94,192
-94,863
-95,547
-96,239
-96,935
-97,631
-98,32
-98,999
-99,663
-100,308
-100,93
-101,525
-102,09
-102,621
-103,113
-103,565
-103,973
-104,335
-104,649
-104,914
-105,131
-105,297
-105,416
-105,486
-105,509
-105,483
-105,408
-105,284
-105,109
-104,879
-104,59
-104,241
-103,827
-103,349
-102,802
-102,185
-101,498
-100,739
-99,911
-99,012
-98,041
-96,992
-95,862
-94,645
-93,337
-91,932
-90,422
-88,802
-87,066
-85,213
-83,243
-81,154
-78,942
-76,6
-74,114
-71,479
-68,7
-65,783
-62,732
-59,566
-56,307
-52,99
-49,667
-46,379
-43,149
-39,995
-36,918
-33,92
-31,011
-28,195
-25,474
-22,85
-20,31
-17,855
-15,496
-13,219
-10,998
-8,781
-6,478
-4,031
-1,424
1,346
4,251
7,247
10,293
13,323
16,238
18,956
21,404
23,533
25,334
26,783
27,834
28,428
28,461
27,869
26,637
24,757
22,259
19,219
15,719
11,9
7,957
4,049
0,321
-3,106
-6,245
-9,168
-11,979
-14,837
-17,815
-20,949
-24,393
-28,269
-32,514
-36,916
-41,077
-44,583
-47,322
-49,254
-50,072
-49,423
-47,161
-43,474
-38,961
-34,181
-29,283
-24,35
-19,928
-16,883
-15,837
-17,036
-20,339
-25,52
-32,571
-40,182
-45,08
-43,953
-34,69
-18,885
-0,53
20,401
49,648
98,997
180,88
297,922
441,117
593,446
737,194
863,278
973,7
1073,731
1164,679
1240,704
1285,811
1284,203
1229,032
1121,198
973,996
806,733
636,564
480,063
347,806
243,663
167,697
116,162
85,06
70,846
70,823
80,568
91,285
95,264
87,199
67,345
44,335
26,408
17,986
18,956
23,49
26,671
27,021
25,176
23,292
22,16
21,014
19,056
15,812
11,758
7,74
4,083
0,991
-1,288
-2,535
-2,556
-1,432
0,307
2,019
3,375
4,272
4,707
4,721
4,346
3,672
2,957
2,559
2,642
3,177
4,066
5,15
6,333
7,595
8,867
10,041
11,066
11,929
12,675
13,423
14,229
15,093
16,019
16,997
18,072
19,35
20,908
22,797
25,059
27,707
30,768
34,282
38,242
42,602
47,294
52,213
57,291
62,496
67,793
73,152
78,529
83,86
89,106
94,251
99,272
104,15
108,861
113,371
117,668
121,764
125,674
129,422
133,018
136,454
139,722
142,815
145,721
148,43
150,92
153,16
155,124
156,795
158,154
159,19
159,885
160,218
160,172
159,73
158,881
157,618
155,936
153,83
151,303
148,36
145,011
141,27
137,151
132,669
127,841
122,685
117,221
111,473
105,462
99,214
92,755
86,113
79,317
72,398
65,386
58,313
51,21
44,107
37,037
30,027
23,108
16,307
9,649
3,16
-3,137
-9,221
-15,074
-20,678
-26,018
-31,082
-35,86
-40,345
-44,533
-48,419
-52,005
-55,291
-58,283
-60,986
-63,409
-65,561
-67,455
-69,104
-70,522
-71,727
-72,737
-73,569
-74,243
-74,78
-75,2
-75,523
-75,771
-75,963
-76,12
-76,262
-76,407
-76,574
-76,779
-77,041
-77,373
-77,79
-78,305
-78,93
-79,676
-80,551
-81,563
-82,719
-84,023
-85,48
-87,09
-88,856
-90,776
-92,849
-95,071
-97,438
-99,945
-102,586
-105,353
-108,239
-111,236
-114,334
-117,524
-120,796
-124,142
-127,55
-131,011
-134,514
-138,051
-141,612
-145,186
-148,765
-152,341
-155,904
-159,446
-162,96
-166,438
-169,871
-173,253
-176,576
-179,835
-183,023
-186,134
-189,163
-192,104
-194,954
-197,709
-200,363
-202,915
-205,359
-207,693
-209,913
-212,015
-213,996
-215,852
-217,58
-219,175
-220,635
-221,955
-223,133
-224,164
-225,043
-225,767
-226,331
-226,73
-226,961
-227,018
-226,898
-226,598
-226,115
-225,448
-224,593
-223,55
-222,318
-220,897
-219,286
-217,487
-215,499
-213,326
-210,971
-208,439
-205,737
-202,871
-199,851
-196,691
-193,401
-189,995
-186,49
-182,904
-179,254
-175,562
-171,849
-168,134
-164,439
-160,785
-157,194
-153,69
-150,291
-147,018
-143,89
-140,928
-138,153
-135,584
-133,234
-131,11
-129,216
-127,555
-126,134
-124,967
-124,062
-123,422
-123,054
-122,961
-123,145
-123,606
-124,327
-125,267
-126,377
-127,61
-128,93
-130,323
-131,78
-133,282
-134,787
-136,235
-137,568
-138,737
-139,704
-140,409
-140,765
-140,764
-140,506
-140,212
-140,198
-140,704
-141,854
-143,769
-146,551
-150,113
-154,187
-158,277
-161,686
-163,957
-164,832
-164,037
-161,479
-157,295
-151,924
-146,281
-141,179
-136,919
-133,991
-132,79
-134,093
-139,697
-149,278
-160,955
-172,341
-177,951
-175,092
-165,6
-151,632
-140,274
-137,846
-141,626
-145,825
-138,622
-102,077
-26,355
92,545
253,041
437,294
623,021
787,505
905,895
969,728
984,044
960,107
916,179
860,934
791,264
701,259
586,005
451,148
314,105
193,933
103,074
42,904
4,304
-23,749
-47,616
-67,878
-80,77
-84,175
-79,504
-70,517
-62,069
-56,407
-53,469
-52,707
-53,192
-54,566
-56,847
-59,332
-61,185
-62,259
-62,686
-62,752
-62,694
-62,171
-60,796
-58,688
-56,114
-53,217
-50,108
-46,784
-43,353
-40,325
-38,151
-36,958
-36,725
-37,298
-38,476
-40,121
-42,019
-43,779
-45,063
-45,673
-45,505
-44,574
-42,929
-40,578
-37,554
-33,933
-29,787
-25,187
-20,193
-14,842
-9,176
-3,261
2,826
9,004
15,19
21,33
27,389
33,342
39,178
44,893
50,484
55,959
61,33
66,607
71,793
76,89
81,897
86,818
91,659
96,429
101,135
105,778
110,357
114,87
119,31
123,672
127,945
132,119
136,18
140,116
143,916
147,571
151,07
154,403
157,557
160,521
163,284
165,833
168,156
170,24
172,07
173,635
174,922
175,92
176,617
177,004
177,072
176,814
176,222
175,291
174,019
172,401
170,438
168,131
165,481
162,492
159,172
155,528
151,569
147,307
142,756
137,929
132,844
127,518
121,97
116,218
110,285
104,192
97,96
91,614
85,176
78,671
72,123
65,557
58,995
52,462
45,98
39,572
33,259
27,061
20,997
15,085
9,342
3,784
-1,575
-6,723
-11,648
-16,342
-20,795
-25,002
-28,959
-32,663
-36,111
-39,306
-42,247
-44,938
-47,382
-49,585
-51,552
-53,29
-54,808
-56,114
-57,216
-58,126
-58,853
-59,408
-59,802
-60,047
-60,154
-60,132
-59,994
-59,749
-59,408
-58,982
-58,479
-57,91
-57,283
-56,608
-55,892
-55,144
-54,369
-53,574
-52,765
-51,947
-51,123
-50,299
-49,477
-48,662
-47,856
-47,062
-46,284
-45,524
-44,785
-44,07
-43,38
-42,717
-42,083
-41,48
-40,907
-40,367
-39,861
-39,39
-38,956
-38,562
-38,207
-37,895
-37,628
-37,405
-37,23
-37,102
-37,022
-36,993
-37,014
-37,088
-37,216
-37,399
-37,639
-37,936
-38,291
-38,703
-39,172
-39,694
-40,267
-40,887
-41,548
-42,243
-42,967
-43,714
-44,478
-45,253
-46,035
-46,818
-47,596
-48,363
-49,112
-49,833
-50,517
-51,151
-51,72
-52,212
-52,618
-52,926
-53,127
-53,213
-53,174
-53,008
-52,708
-52,265
-51,668
-50,897
-49,941
-48,797
-47,471
-45,972
-44,326
-42,55
-40,668
-38,717
-36,72
-34,692
-32,639
-30,546
-28,399
-26,198
-23,955
-21,697
-19,451
-17,224
-15,017
-12,83
-10,641
-8,433
-6,179
-3,825
-1,344
1,255
3,943
6,64
9,254
11,723
13,994
16,027
17,801
19,269
20,385
21,125
21,442
21,292
20,635
19,396
17,533
15,072
12,067
8,628
4,905
0,999
-3,001
-6,986
-10,872
-14,554
-17,92
-20,931
-23,574
-25,82
-27,641
-29,023
-30,003
-30,78
-31,679
-32,918
-34,62
-36,824
-39,55
-42,879
-46,833
-51,149
-55,238
-58,598
-60,994
-62,411
-62,916
-62,337
-60,418
-57,282
-53,625
-50,272
-47,86
-46,818
-47,323
-50,021
-55,124
-61,068
-65,673
-66,393
-62,453
-57,269
-53,796
-50,764
-42,159
-14,709
45,516
143,001
275,247
431,452
593,386
748,782
888,418
1002,583
1088,816
1142,808
1157,603
1134,125
1072,466
974,597
851,486
711,885
566,739
430,252
309,914
211,612
138,309
87,348
56,049
41,27
37,669
39,5
41,995
40,265
33,519
25,582
19,246
17,949
22,404
28,733
34,502
37,832
37,987
36,947
35,861
34,575
32,793
29,894
25,689
20,941
16,486
12,586
9,275
6,602
4,575
3,229
2,521
1,981
0,996
-0,686
-3,108
-6,174
-9,656
-13,387
-17,213
-20,82
-23,866
-26,151
-27,574
-28,151
-27,974
-27,1
-25,571
-23,464
-20,864
-17,853
-14,502
-10,863
-6,982
-2,923
1,246
5,449
9,628
13,748
17,784
21,725
25,566
29,304
32,944
36,495
39,96
43,341
46,637
49,847
52,97
56,011
58,973
61,86
64,675
67,417
70,083
72,668
75,163
77,562
79,852
82,023
84,065
85,969
87,725
89,325
90,761
92,021
93,096
93,975
94,648
95,103
95,327
95,309
95,038
94,503
93,692
92,598
91,21
89,52
87,522
85,209
82,577
79,622
76,343
72,738
68,81
64,56
59,994
55,119
49,941
44,47
38,719
32,7
26,428
19,919
13,191
6,263
-0,845
-8,11
-15,511
-23,024
-30,625
-38,288
-45,99
-53,703
-61,402
-69,062
-76,657
-84,162
-91,554
-98,807
-105,9
-112,812
-119,521
-126,009
-132,259
-138,255
-143,982
-149,428
-154,582
-159,435
-163,979
-168,209
-172,121
-175,713
-178,984
-181,936
-184,572
-186,895
-188,913
-190,632
-192,061
-193,21
-194,089
-194,71
-195,085
-195,227
-195,151
-194,871
-194,402
-193,758
-192,956
-192,01
-190,936
-189,749
-188,464
-187,095
-185,657
-184,162
-182,623
-181,052
-179,46
-177,859
-176,257
-174,665
-173,089
-171,538
-170,018
-168,534
-167,091
-165,693
-164,344
-163,047
-161,805
-160,618
-159,491
-158,423
-157,417
-156,472
-155,589
-154,768
-154,007
-153,306
-152,664
-152,078
-151,547
-151,068
-150,641
-150,264
-149,935
-149,652
-149,415
-149,223
-149,074
-148,968
-148,905
-148,883
-148,904
-148,968
-149,075
-149,228
-149,426
-149,671
-149,964
-150,304
-150,691
-151,124
-151,598
-152,111
-152,659
-153,238
-153,844
-154,475
-155,127
-155,797
-156,486
-157,191
-157,91
-158,638
-159,37
-160,101
-160,823
-161,528
-162,207
-162,85
-163,448
-163,989
-164,468
-164,874
-165,198
-165,426
-165,537
-165,52
-165,366
-165,073
-164,641
-164,075
-163,386
-162,594
-161,73
-160,824
-159,904
-158,992
-158,1
-157,242
-156,427
-155,665
-154,973
-154,348
-153,773
-153,223
-152,662
-152,05
-151,345
-150,487
-149,399
-148,013
-146,28
-144,166
-141,661
-138,764
-135,488
-131,859
-127,911
-123,714
-119,365
-114,976
-110,682
-106,615
-102,894
-99,656
-97,045
-95,167
-94,105
-93,899
-94,561
-96,091
-98,467
-101,654
-105,589
-110,148
-115,178
-120,5
-125,897
-131,183
-136,179
-140,677
-144,568
-147,847
-150,587
-152,988
-155,226
-157,386
-159,634
-162,119
-164,759
-167,386
-169,668
-171,064
-171,309
-170,264
-167,562
-163,03
-156,819
-149,199
-140,796
-132,426
-124,497
-117,397
-111,848
-108,458
-107,674
-109,681
-114,388
-120,855
-127,123
-131,41
-131,589
-127,296
-121,743
-116,403
-109,005
-92,787
-54,079
18,305
125,663
262,236
413,697
565,586
712,4
850,938
980,15
1095,736
1185,539
1238,57
1245,333
1203,519
1118,77
997,34
850,981
692,294
534,228
394,353
284,046
207,077
160,855
133,427
113,079
94,462
76,238
61,927
55,544
56,228
60,953
66,394
69,726
70,629
69,924
67,813
64,523
60,535
56,328
52,481
49,309
46,639
44,355
42,797
42,3
42,839
44,209
46,04
48,001
49,997
51,813
52,947
53
51,8
49,353
45,879
41,636
36,815
31,712
26,737
22,238
18,482
15,622
13,675
12,636
12,5
13,225
14,746
16,991
19,878
23,337
27,317
31,752
36,57
41,686
47,009
52,452
57,936
63,404
68,818
74,152
79,393
84,534
89,571
94,508
99,354
104,112
108,784
113,369
117,864
122,269
126,587
130,821
134,969
139,029
142,993
146,85
150,593
154,209
157,686
161,01
164,165
167,139
169,92
172,497
174,859
176,996
178,895
180,547
181,94
183,063
183,905
184,454
184,699
184,63
184,235
183,507
182,435
181,013
179,235
177,096
174,593
171,724
168,489
164,891
160,933
156,619
151,958
146,959
141,631
135,988
130,044
123,815
117,318
110,573
103,6
96,421
89,058
81,535
73,876
66,106
58,251
50,337
42,391
34,439
26,508
18,626
10,819
3,112
-4,469
-11,899
-19,156
-26,216
-33,061
-39,67
-46,026
-52,113
-57,916
-63,424
-68,626
-73,513
-78,078
-82,316
-86,225
-89,805
-93,055
-95,978
-98,58
-100,865
-102,841
-104,517
-105,901
-107,006
-107,843
-108,424
-108,763
-108,875
-108,774
-108,476
-107,996
-107,351
-106,555
-105,626
-104,579
-103,429
-102,192
-100,882
-99,513
-98,101
-96,657
-95,194
-93,724
-92,258
-90,806
-89,377
-87,98
-86,622
-85,309
-84,048
-82,843
-81,699
-80,619
-79,605
-78,661
-77,788
-76,987
-76,259
-75,604
-75,023
-74,514
-74,078
-73,712
-73,417
-73,191
-73,033
-72,941
-72,914
-72,951
-73,052
-73,214
-73,438
-73,722
-74,066
-74,47
-74,934
-75,457
-76,039
-76,682
-77,386
-78,153
-78,982
-79,876
-80,836
-81,864
-82,959
-84,125
-85,361
-86,668
-88,048
-89,5
-91,026
-92,624
-94,296
-96,04
-97,856
-99,742
-101,698
-103,721
-105,808
-107,956
-110,162
-112,42
-114,726
-117,074
-119,458
-121,871
-124,306
-126,755
-129,21
-131,662
-134,102
-136,52
-138,905
-141,248
-143,538
-145,764
-147,917
-149,986
-151,96
-153,832
-155,591
-157,228
-158,738
-160,11
-161,34
-162,42
-163,346
-164,114
-164,721
-165,164
-165,444
-165,558
-165,512
-165,311
-164,964
-164,48
-163,869
-163,144
-162,319
-161,412
-160,437
-159,408
-158,34
-157,246
-156,145
-155,057
-154,004
-153,007
-152,085
-151,254
-150,53
-149,93
-149,466
-149,147
-148,979
-148,966
-149,118
-149,457
-150,004
-150,776
-151,786
-153,038
-154,526
-156,234
-158,146
-160,235
-162,469
-164,821
-167,244
-169,684
-172,093
-174,424
-176,618
-178,622
-180,344
-181,648
-182,494
-182,924
-182,99
-182,817
-182,452
-181,791
-180,862
-179,828
-178,673
-177,293
-175,588
-173,269
-170,368
-167,43
-164,864
-162,889
-161,885
-162,098
-163,571
-166,648
-171,306
-176,51
-181,087
-184,223
-184,955
-183,55
-181,819
-179,672
-176,373
-170,846
-159,974
-144,443
-127,676
-113,174
-106,188
-107,835
-116,105
-127,056
-131,191
-118,471
-77,684
1,099
117,46
264,421
429,225
594,219
747,886
883,425
994,819
1080,3
1136,903
1157,709
1138,427
1076,417
970,457
829,235
668,4
505,104
359,23
242,819
156,469
97,07
57,352
30,949
16,636
11,534
10,545
9,069
2,493
-9,289
-20,594
-26,37
-24,222
-15,455
-5,698
0,447
1,662
-1,272
-6,113
-11,407
-17,017
-23,031
-29,118
-34,249
-37,68
-39,274
-39,156
-37,694
-35,179
-31,786
-28,049
-24,815
-22,606
-21,621
-21,846
-23,017
-24,901
-27,334
-29,99
-32,436
-34,349
-35,5
-35,784
-35,236
-33,883
-31,739
-28,856
-25,3
-21,141
-16,462
-11,327
-5,786
0,103
6,273
12,652
19,155
25,706
32,233
38,685
45,027
51,236
57,297
63,2
68,937
74,509
79,927
85,194
90,316
95,293
100,125
104,816
109,374
113,806
118,115
122,304
126,37
130,311
134,124
137,806
141,351
144,751
147,999
151,087
154,009
156,76
159,335
161,725
163,925
165,926
167,723
169,308
170,673
171,809
172,707
173,359
173,756
173,892
173,758
173,348
172,656
171,677
170,408
168,844
166,984
164,829
162,378
159,633
156,597
153,277
149,678
145,807
141,675
137,292
132,672
127,827
122,773
117,526
112,104
106,526
100,811
94,98
89,053
83,053
77,001
70,92
64,834
58,765
52,737
46,772
40,892
35,12
29,476
23,98
18,652
13,509
8,568
3,846
-0,644
-4,889
-8,877
-12,598
-16,045
-19,21
-22,089
-24,678
-26,975
-28,981
-30,698
-32,127
-33,274
-34,144
-34,744
-35,083
-35,169
-35,012
-34,625
-34,018
-33,205
-32,198
-31,013
-29,663
-28,163
-26,528
-24,773
-22,912
-20,962
-18,937
-16,852
-14,722
-12,56
-10,38
-8,197
-6,022
-3,868
-1,745
0,335
2,363
4,329
6,226
8,047
9,784
11,432
12,987
14,443
15,799
17,051
18,197
19,238
20,171
20,998
21,718
22,335
22,848
23,261
23,576
23,797
23,927
23,971
23,933
23,818
23,631
23,377
23,062
22,691
22,269
21,801
21,294
20,753
20,183
19,589
18,977
18,35
17,713
17,07
16,425
15,779
15,134
14,493
13,857
13,225
12,6
11,982
11,37
10,765
10,166
9,572
8,982
8,394
7,806
7,213
6,613
6,002
5,378
4,736
4,072
3,384
2,667
1,918
1,132
0,306
-0,566
-1,488
-2,463
-3,494
-4,584
-5,734
-6,945
-8,217
-9,545
-10,927
-12,358
-13,835
-15,354
-16,91
-18,499
-20,117
-21,761
-23,427
-25,11
-26,801
-28,49
-30,165
-31,814
-33,424
-34,979
-36,467
-37,874
-39,188
-40,4
-41,504
-42,49
-43,346
-44,059
-44,606
-44,977
-45,166
-45,166
-44,979
-44,616
-44,095
-43,451
-42,723
-41,937
-41,111
-40,255
-39,363
-38,435
-37,47
-36,458
-35,41
-34,331
-33,222
-32,097
-30,962
-29,801
-28,589
-27,272
-25,78
-24,086
-22,181
-20,066
-17,786
-15,388
-12,936
-10,536
-8,267
-6,191
-4,374
-2,853
-1,657
-0,855
-0,504
-0,674
-1,458
-2,884
-4,961
-7,694
-11,034
-14,921
-19,256
-23,86
-28,577
-33,282
-37,848
-42,198
-46,259
-49,907
-53,12
-55,955
-58,488
-60,925
-63,44
-66,121
-69,187
-72,838
-77,057
-81,786
-86,781
-91,523
-95,702
-99,009
-100,806
-100,722
-98,753
-94,998
-89,997
-84,578
-79,202
-74,621
-72,279
-73,157
-77,673
-86,122
-98,081
-112,516
-128,658
-144,074
-153,938
-155,192
-145,816
-124,993
-95,326
-54,726
3,19
83,456
191,665
324,234
467,665
609,766
737,981
847,516
943,52
1026,169
1093,77
1139,365
1146,828
1108,879
1023,902
895,29
741,008
577,315
420,184
288,221
186,478
114,935
68,876
34,814
6,217
-18,64
-39,265
-50,141
-50,332
-42,939
-31,323
-20,265
-12,208
-7,367
-6,272
-8,775
-14,19
-21,974
-31,153
-40,458
-49,215
-56,793
-62,238
-65,19
-65,775
-64,251
-61,251
-57,515
-53,482
-49,707
-46,97
-45,646
-45,859
-47,6
-50,567
-54,448
-59,026
-63,959
-68,822
-73,316
-77,205
-80,315
-82,625
-84,108
-84,734
-84,536
-83,556
-81,841
-79,457
-76,467
-72,924
-68,89
-64,437
-59,633
-54,558
-49,291
-43,905
-38,473
-33,045
-27,654
-22,327
-17,077
-11,914
-6,843
-1,859
3,049
7,885
12,653
17,354
21,987
26,555
31,061
35,506
39,89
44,21
48,458
52,628
56,71
60,696
64,572
68,325
71,942
75,408
78,713
81,846
84,796
87,551
90,101
92,434
94,54
96,409
98,028
99,387
100,475
101,281
101,796
102,013
101,923
101,521
100,801
99,758
98,391
96,698
94,679
92,335
89,67
86,687
83,394
79,798
75,909
71,737
67,295
62,597
57,658
52,494
47,123
41,562
35,831
29,95
23,94
17,821
11,617
5,348
-0,962
-7,29
-13,614
-19,913
-26,163
-32,344
-38,436
-44,418
-50,273
-55,982
-61,53
-66,9
-72,079
-77,055
-81,816
-86,352
-90,656
-94,721
-98,542
-102,115
-105,44
-108,515
-111,341
-113,92
-116,256
-118,354
-120,219
-121,858
-123,279
-124,492
-125,507
-126,334
-126,984
-127,471
-127,806
-128,002
-128,072
-128,03
-127,889
-127,662
-127,363
-127,004
-126,599
-126,161
-125,7
-125,23
-124,762
-124,305
-123,871
-123,468
-123,105
-122,79
-122,53
-122,332
-122,201
-122,143
-122,163
-122,263
-122,448
-122,719
-123,077
-123,524
-124,06
-124,684
-125,394
-126,189
-127,066
-128,024
-129,058
-130,164
-131,34
-132,58
-133,88
-135,234
-136,637
-138,084
-139,568
-141,084
-142,626
-144,189
-145,768
-147,356
-148,949
-150,542
-152,13
-153,708
-155,272
-156,815
-158,335
-159,828
-161,289
-162,715
-164,104
-165,452
-166,757
-168,018
-169,232
-170,398
-171,514
-172,579
-173,593
-174,555
-175,466
-176,326
-177,137
-177,9
-178,618
-179,293
-179,93
-180,529
-181,094
-181,627
-182,131
-182,609
-183,064
-183,497
-183,912
-184,311
-184,698
-185,076
-185,447
-185,815
-186,181
-186,547
-186,915
-187,287
-187,664
-188,047
-188,437
-188,836
-189,246
-189,667
-190,099
-190,543
-190,996
-191,458
-191,924
-192,389
-192,847
-193,291
-193,714
-194,11
-194,473
-194,797
-195,076
-195,304
-195,478
-195,595
-195,646
-195,625
-195,522
-195,326
-195,028
-194,618
-194,087
-193,423
-192,616
-191,659
-190,551
-189,288
-187,864
-186,268
-184,484
-182,507
-180,337
-177,977
-175,436
-172,722
-169,854
-166,864
-163,799
-160,705
-157,616
-154,552
-151,517
-148,523
-145,581
-142,704
-139,903
-137,172
-134,495
-131,868
-129,292
-126,762
-124,261
-121,739
-119,117
-116,332
-113,349
-110,162
-106,792
-103,257
-99,588
-95,843
-92,097
-88,457
-85,027
-81,881
-79,071
-76,647
-74,668
-73,211
-72,379
-72,244
-72,842
-74,193
-76,29
-79,116
-82,61
-86,655
-91,1
-95,753
-100,454
-105,061
-109,42
-113,463
-117,202
-120,715
-124,17
-127,73
-131,465
-135,514
-140,096
-145,159
-150,535
-155,905
-160,582
-164,093
-166,179
-166,299
-163,938
-159,071
-151,809
-142,699
-133,03
-123,732
-115,665
-110,264
-108,654
-111,594
-119,787
-133,09
-150,505
-170,25
-189,114
-203,546
-210,955
-211,355
-206,272
-194,797
-172,168
-128,728
-54,59
52,471
185,454
330,057
471,055
599,806
716,754
825,927
928,223
1018,874
1082,816
1102,238
1066,603
971,289
826,621
655,528
480,154
324,564
204,06
117,456
60,231
22,062
-8,307
-30,908
-46,526
-56,975
-61,804
-67,64
-78,146
-90,881
-104,851
-115,773
-121,415
-124,696
-126,664
-127,939
-128,509
-126,363
-121,095
-113,905
-105,907
-98,457
-92,677
-89,012
-87,753
-88,915
-91,794
-95,41
-99,047
-102,153
-104,345
-105,532
-105,675
-104,906
-103,755
-102,701
-101,947
-101,559
-101,419
-101,303
-101,04
-100,425
-99,15
-97,021
-93,978
-90,021
-85,252
-79,788
-73,707
-67,099
-60,071
-52,698
-45,052
-37,2
-29,194
-21,1
-12,994
-4,935
3,034
10,883
18,602
26,184
33,63
40,946
48,144
55,23
62,204
69,061
75,796
82,405
88,888
95,247
101,484
107,6
113,593
119,461
125,199
130,8
136,253
141,548
146,673
151,617
156,37
160,925
165,274
169,407
173,315
176,991
180,423
183,603
186,52
189,163
191,521
193,585
195,345
196,794
197,924
198,727
199,197
199,331
199,124
198,574
197,68
196,441
194,861
192,942
190,689
188,109
185,21
182,003
178,499
174,711
170,653
166,343
161,797
157,034
152,075
146,939
141,649
136,228
130,697
125,082
119,405
113,69
107,962
102,243
96,556
90,925
85,371
79,914
74,574
69,371
64,321
59,442
54,747
50,251
45,966
41,9
38,064
34,462
31,102
27,985
25,113
22,488
20,106
17,966
16,063
14,391
12,943
11,712
10,687
9,858
9,216
8,747
8,441
8,285
8,266
8,372
8,592
8,911
9,319
9,802
10,349
10,949
11,59
12,262
12,954
13,658
14,365
15,066
15,756
16,427
17,075
17,694
18,281
18,832
19,344
19,817
20,248
20,637
20,985
21,292
21,56
21,79
21,985
22,146
22,277
22,381
22,459
22,515
22,551
22,57
22,575
22,57
22,557
22,54
22,522
22,507
22,498
22,498
22,511
22,539
22,586
22,654
22,747
22,869
23,021
23,208
23,433
23,7
24,011
24,372
24,785
25,254
25,783
26,376
27,037
27,77
28,579
29,471
30,448
31,518
32,683
33,951
35,325
36,81
38,411
40,131
41,974
43,943
46,041
48,268
50,628
53,12
55,744
58,5
61,385
64,399
67,536
70,792
74,16
77,634
81,205
84,86
88,588
92,374
96,203
100,058
103,923
107,779
111,61
115,396
119,116
122,75
126,275
129,67
132,911
135,976
138,839
141,48
143,88
146,023
147,896
149,486
150,782
151,77
152,439
152,772
152,758
152,393
151,674
150,6
149,179
147,427
145,37
143,048
140,494
137,741
134,822
131,761
128,597
125,381
122,157
118,985
115,91
112,948
110,135
107,514
105,103
102,923
100,944
99,054
97,189
95,345
93,455
91,434
89,097
86,108
82,295
77,676
72,243
65,974
58,934
51,275
43,556
36,806
31,772
28,797
28,102
29,798
33,901
40,215
47,808
54,943
60,043
62,104
60,478
54,602
45,156
34,437
25,05
20,55
21,458
24,157
28,392
37,231
58,932
106,642
185,972
294,261
423,362
560,812
697,184
824,8
933,612
1011,797
1049,333
1042,273
994,496
915,635
814,239
696,697
569,546
442,125
328,428
239,77
180,49
145,579
122,057
100,709
78,092
55,991
40,61
33,506
32,094
32,873
31,455
26,285
18,293
8,419
-2,266
-12,662
-21,978
-29,35
-33,938
-35,618
-34,782
-31,968
-27,842
-23,079
-18,274
-14,004
-10,783
-8,836
-8,164
-8,689
-10,241
-12,653
-15,786
-19,459
-23,479
-27,695
-31,97
-36,159
-40,129
-43,731
-46,805
-49,247
-50,995
-52,014
-52,308
-51,897
-50,812
-49,108
-46,854
-44,117
-40,964
-37,459
-33,661
-29,639
-25,465
-21,212
-16,954
-12,741
-8,605
-4,571
-0,649
3,157
6,849
10,435
13,932
17,349
20,693
23,967
27,17
30,307
33,382
36,401
39,366
42,278
45,137
47,938
50,676
53,345
55,937
58,44
60,843
63,134
65,304
67,343
69,242
70,991
72,579
73,997
75,232
76,275
77,112
77,732
78,12
78,266
78,156
77,779
77,125
76,184
74,945
73,402
71,547
69,375
66,88
64,059
60,911
57,434
53,631
49,504
45,057
40,297
35,231
29,869
24,222
18,304
12,128
5,71
-0,933
-7,782
-14,818
-22,02
-29,367
-36,837
-44,406
-52,05
-59,746
-67,468
-75,193
-82,897
-90,554
-98,142
-105,637
-113,019
-120,264
-127,353
-134,266
-140,985
-147,492
-153,771
-159,808
-165,588
-171,102
-176,337
-181,286
-185,941
-190,297
-194,351
-198,099
-201,542
-204,681
-207,517
-210,055
-212,3
-214,259
-215,938
-217,348
-218,497
-219,398
-220,06
-220,498
-220,723
-220,749
-220,591
-220,262
-219,777
-219,152
-218,402
-217,541
-216,586
-215,552
-214,455
-213,31
-212,133
-210,938
-209,741
-208,555
-207,395
-206,273
-205,201
-204,192
-203,256
-202,403
-201,642
-200,982
-200,43
-199,992
-199,674
-199,481
-199,417
-199,484
-199,685
-200,019
-200,488
-201,089
-201,821
-202,682
-203,666
-204,769
-205,986
-207,31
-208,733
-210,247
-211,84
-213,504
-215,226
-216,995
-218,797
-220,62
-222,448
-224,27
-226,071
-227,837
-229,555
-231,209
-232,788
-234,279
-235,668
-236,944
-238,095
-239,112
-239,984
-240,703
-241,261
-241,652
-241,873
-241,92
-241,794
-241,496
-241,026
-240,391
-239,595
-238,645
-237,548
-236,311
-234,943
-233,454
-231,856
-230,163
-228,392
-226,558
-224,679
-222,771
-220,851
-218,936
-217,041
-215,177
-213,355
-211,586
-209,887
-208,284
-206,8
-205,453
-204,255
-203,219
-202,348
-201,641
-201,089
-200,666
-200,345
-200,102
-199,913
-199,767
-199,65
-199,54
-199,4
-199,178
-198,825
-198,305
-197,588
-196,658
-195,517
-194,177
-192,686
-191,124
-189,557
-188,063
-186,72
-185,573
-184,69
-184,151
-184,024
-184,445
-185,606
-187,593
-190,366
-193,786
-197,568
-201,373
-204,878
-207,603
-208,92
-208,436
-206,194
-202,555
-198,155
-193,959
-190,871
-189,589
-191,151
-195,345
-200,122
-204,523
-207,755
-209,286
-210,668
-208,966
-196,885
-168,488
-118,082
-45,684
41,616
137,702
237,645
335,488
425,483
500,12
549,653
571,144
568,735
547,015
511,68
462,286
392,718
302,97
199,24
94,62
5,706
-58,85
-100,081
-125,884
-145,938
-165,352
-183,502
-196,667
-202,776
-202,771
-199,699
-197,452
-197,839
-200,751
-205,569
-211,238
-216,866
-221,823
-225,27
-226,414
-225,021
-221,285
-215,661
-208,786
-201,271
-193,62
-186,338
-179,884
-174,481
-170,18
-166,924
-164,556
-162,917
-161,874
-161,272
-160,947
-160,779
-160,638
-160,372
-159,839
-158,88
-157,374
-155,252
-152,469
-149,003
-144,853
-140,041
-134,614
-128,637
-122,174
-115,281
-108,012
-100,416
-92,56
-84,515
-76,359
-68,167
-59,998
-51,89
-43,873
-35,968
-28,188
-20,535
-13,003
-5,578
1,747
8,975
16,104
23,132
30,061
36,892
43,628
50,27
56,819
63,269
69,619
75,862
81,991
87,998
93,871
99,597
105,166
110,569
115,796
120,839
125,69
130,339
134,779
138,999
142,991
146,744
150,248
153,491
156,464
159,155
161,556
163,656
165,448
166,922
168,073
168,893
169,378
169,524
169,327
168,786
167,901
166,673
165,104
163,198
160,96
158,398
155,519
152,333
148,85
145,083
141,044
136,748
132,21
127,445
122,47
117,303
111,962
106,466
100,835
95,089
89,249
83,335
77,367
71,365
65,351
59,344
53,362
47,425
41,551
35,757
30,06
24,475
19,017
13,7
8,534
3,532
-1,297
-5,944
-10,403
-14,668
-18,733
-22,596
-26,253
-29,704
-32,947
-35,984
-38,816
-41,446
-43,876
-46,11
-48,155
-50,013
-51,692
-53,198
-54,536
-55,714
-56,739
-57,619
-58,36
-58,971
-59,459
-59,833
-60,1
-60,27
-60,348
-60,344
-60,265
-60,117
-59,907
-59,642
-59,328
-58,971
-58,577
-58,15
-57,695
-57,217
-56,721
-56,209
-55,685
-55,151
-54,611
-54,067
-53,52
-52,972
-52,425
-51,879
-51,336
-50,796
-50,261
-49,729
-49,202
-48,677
-48,154
-47,632
-47,109
-46,581
-46,045
-45,499
-44,939
-44,361
-43,761
-43,135
-42,477
-41,783
-41,047
-40,264
-39,429
-38,534
-37,574
-36,543
-35,435
-34,245
-32,968
-31,599
-30,131
-28,562
-26,888
-25,104
-23,207
-21,193
-19,061
-16,808
-14,434
-11,938
-9,323
-6,59
-3,743
-0,791
2,257
5,394
8,608
11,888
15,222
18,596
21,996
25,409
28,819
32,212
35,572
38,881
42,12
45,27
48,316
51,241
54,034
56,678
59,163
61,479
63,618
65,571
67,33
68,88
70,207
71,301
72,154
72,765
73,142
73,297
73,249
73,036
72,691
72,254
71,764
71,258
70,778
70,368
70,069
69,929
69,987
70,284
70,879
71,822
73,124
74,771
76,692
78,805
81,092
83,47
85,761
87,732
89,107
89,741
89,685
88,954
87,38
84,913
81,74
78,376
75,626
74,028
73,674
74,649
77,356
82,098
88,737
96,499
104,035
110,128
114,121
115,613
113,827
109,121
103,466
98,944
97,669
99,254
101,44
105,317
116,689
145,725
201,875
287,355
396,237
517,653
642,77
767,201
889,052
1003,935
1101,585
1169,509
1195,943
1177,16
1117,56
1023,659
906,222
775,191
639,954
514,58
410,382
333,209
283,609
253,374
231,799
212,989
194,913
179,653
170,796
167,933
168,139
167,987
164,441
156,965
146,588
134,506
122,067
110,407
100,51
93,303
89,16
87,881
88,915
91,521
94,978
98,616
101,799
103,974
104,841
104,346
102,581
99,727
95,972
91,486
86,454
81,085
75,538
69,94
64,447
59,202
54,364
50,114
46,571
43,802
41,86
40,755
40,468
40,978
42,228
44,142
46,657
49,704
53,218
57,143
61,403
65,918
70,611
75,397
80,215
85,026
89,796
94,504
99,139
103,695
108,175
112,59
116,944
121,234
125,458
129,61
133,685
137,682
141,599
145,435
149,185
152,841
156,397
159,843
163,169
166,362
169,41
172,297
175,011
177,543
179,882
182,021
183,952
185,667
187,157
188,418
189,441
190,219
190,744
191,011
191,012
190,743
190,198
189,373
188,266
186,876
185,201
183,241
180,999
178,476
175,678
172,608
169,274
165,683
161,844
157,767
153,463
148,944
144,224
139,317
134,237
129,001
123,624
118,124
112,516
106,82
101,052
95,231
89,374
83,501
77,629
71,776
65,961
60,2
54,51
48,907
43,407
38,024
32,772
27,662
22,707
17,916
13,299
8,864
4,618
0,566
-3,287
-6,938
-10,384
-13,625
-16,661
-19,493
-22,123
-24,553
-26,788
-28,832
-30,69
-32,368
-33,872
-35,208
-36,385
-37,408
-38,287
-39,029
-39,641
-40,132
-40,509
-40,781
-40,954
-41,037
-41,036
-40,958
-40,811
-40,599
-40,33
-40,008
-39,64
-39,23
-38,783
-38,302
-37,792
-37,256
-36,696
-36,115
-35,516
-34,899
-34,267
-33,619
-32,958
-32,284
-31,595
-30,893
-30,177
-29,447
-28,702
-27,94
-27,163
-26,368
-25,554
-24,722
-23,869
-22,996
-22,1
-21,182
-20,239
-19,271
-18,276
-17,254
-16,202
-15,119
-14,003
-12,853
-11,667
-10,443
-9,179
-7,874
-6,525
-5,131
-3,69
-2,2
-0,662
0,928
2,568
4,261
6,007
7,806
9,658
11,562
13,52
15,529
17,588
19,698
21,854
24,057
26,303
28,589
30,912
33,269
35,654
38,064
40,492
42,933
45,378
47,821
50,253
52,665
55,047
57,39
59,682
61,914
64,072
66,147
68,126
69,999
71,752
73,374
74,853
76,178
77,335
78,314
79,104
79,692
80,069
80,224
80,147
79,828
79,259
78,43
77,334
75,962
74,307
72,362
70,122
67,583
64,74
61,591
58,136
54,372
50,3
45,92
41,234
36,242
30,946
25,346
19,443
13,236
6,73
-0,076
-7,18
-14,581
-22,279
-30,273
-38,561
-47,139
-56,008
-65,164
-74,606
-84,329
-94,323
-104,58
-115,092
-125,847
-136,836
-148,048
-159,461
-171,057
-182,814
-194,714
-206,745
-218,89
-231,124
-243,427
-255,776
-268,143
-280,509
-292,84
-305,087
-317,202
-329,122
-340,796
-352,188
-363,262
-373,995
-384,352
-394,269
-403,691
-412,561
-420,819
-428,44
-435,375
-441,546
-446,986
-451,811
-456,213
-460,515
-464,961
-469,675
-474,85
-480,6
-486,825
-493,333
-499,62
-504,926
-508,731
-510,574
-509,928
-506,633
-500,815
-492,795
-483,526
-474,171
-465,569
-458,777
-454,959
-454,702
-458,194
-465,258
-474,903
-485,934
-497,338
-506,492
-509,348
-502,853
-485,115
-457,294
-422,982
-382,649
-332,241
-264,276
-172,528
-57,055
74,39
209,09
338,334
457,85
564,704
656,711
724,372
754,197
739,249
677,68
576,626
451,593
314,486
176,674
49,09
-62,079
-149,434
-210,007
-247,697
-268,418
-281,187
-291,934
-301,792
-310,559
-316,388
-319,53
-322,307
-326,397
-333,147
-342,429
-352,836
-362,97
-371,478
-377,215
-379,456
-378,029
-373,194
-365,479
-355,629
-344,384
-332,435
-320,534
-309,297
-299,039
-289,884
-281,808
-274,721
-268,595
-263,377
-258,937
-255,139
-251,866
-249,059
-246,727
-244,84
-243,311
-242,005
-240,748
-239,424
-237,975
-236,332
-234,431
-232,182
-229,465
-226,225
-222,471
-218,201
-213,422
-208,11
-202,192
-195,652
-188,513
-180,815
-172,625
-163,988
-154,916
-145,46
-135,692
-125,702
-115,605
-105,472
-95,331
-85,223
-75,185
-65,264
-55,532
-46,027
-36,759
-27,741
-18,986
-10,506
-2,328
5,547
13,137
20,466
27,563
34,443
41,099
47,532
53,74
59,721
65,472
70,984
76,233
81,206
85,891
90,282
94,372
98,15
101,599
104,704
107,451
109,832
111,839
113,468
114,714
115,577
116,061
116,174
115,923
115,32
114,373
113,09
111,484
109,565
107,347
104,846
102,075
99,051
95,794
92,324
88,662
84,83
80,851
76,748
72,544
68,263
63,931
59,57
55,206
50,862
46,564
42,335
38,197
34,174
30,285
26,55
22,989
19,617
16,449
13,499
10,78
8,302
6,074
4,104
2,399
0,962
-0,202
-1,092
-1,709
-2,054
-2,13
-1,941
-1,495
-0,798
0,141
1,313
2,706
4,308
6,107
8,089
10,24
12,545
14,989
17,555
20,227
22,991
25,829
28,726
31,668
34,638
37,622
40,606
43,576
46,519
49,422
52,273
55,061
57,776
60,406
62,944
65,38
67,707
69,918
72,006
73,967
75,796
77,489
79,043
80,455
81,725
82,85
83,832
84,671
85,369
85,926
86,347
86,633
86,788
86,814
86,717
86,499
86,164
85,717
85,161
84,502
83,744
82,89
81,946
80,916
79,805
78,616
77,354
76,022
74,627
73,17
71,657
70,09
68,475
66,815
65,113
63,373
61,597
59,788
57,949
56,081
54,186
52,267
50,323
48,358
46,371
44,365
42,341
40,301
38,244
36,174
34,09
31,994
29,887
27,77
25,645
23,513
21,375
19,234
17,09
14,945
12,801
10,659
8,52
6,385
4,254
2,129
0,009
-2,105
-4,212
-6,31
-8,399
-10,476
-12,54
-14,589
-16,622
-18,637
-20,634
-22,611
-24,568
-26,503
-28,415
-30,305
-32,17
-34,009
-35,822
-37,607
-39,364
-41,092
-42,791
-44,461
-46,103
-47,714
-49,296
-50,846
-52,363
-53,844
-55,286
-56,684
-58,034
-59,331
-60,57
-61,749
-62,865
-63,914
-64,896
-65,808
-66,649
-67,416
-68,105
-68,709
-69,22
-69,63
-69,93
-70,112
-70,169
-70,096
-69,885
-69,533
-69,039
-68,399
-67,61
-66,662
-65,54
-64,237
-62,75
-61,084
-59,25
-57,269
-55,163
-52,963
-50,7
-48,404
-46,098
-43,792
-41,48
-39,155
-36,806
-34,44
-32,077
-29,734
-27,418
-25,132
-22,866
-20,603
-18,317
-15,967
-13,51
-10,907
-8,131
-5,192
-2,126
0,997
4,071
7,022
9,804
12,367
14,691
16,719
18,331
19,498
20,256
20,614
20,609
20,177
19,094
17,319
15,002
12,146
8,698
4,551
-0,576
-6,577
-12,898
-19,192
-25,3
-30,898
-35,683
-39,26
-40,962
-40,682
-39,002
-36,383
-33,255
-30,237
-27,793
-26,332
-26,507
-28,538
-31,96
-36,376
-41,224
-45,522
-48,549
-49,898
-49,059
-45,846
-40,648
-33,771
-25,969
-18,757
-13,359
-10,745
-11,863
-17,136
-26,661
-39,333
-52,092
-61,747
-65,203
-62,439
-56,789
-47,842
-32,3
-1,4
58,722
153,414
280,26
428,332
577,741
714,998
832,926
930,695
1015,478
1088,505
1146,018
1180,077
1176,664
1129,959
1040,938
915,756
769,806
615,073
462,618
324,87
208,303
120,992
66,923
42,079
41,639
54,011
67,459
75,886
73,67
63,246
51,481
41,849
38,304
39,786
40,564
38,381
32,187
22,523
12,388
3,04
-5,527
-12,845
-18,515
-22,349
-24,207
-24,359
-23,425
-21,786
-19,601
-17,312
-15,615
-14,947
-15,518
-17,317
-20,048
-23,477
-27,459
-31,716
-35,863
-39,599
-42,687
-44,967
-46,429
-47,066
-46,861
-45,847
-44,074
-41,591
-38,465
-34,764
-30,54
-25,857
-20,784
-15,388
-9,748
-3,943
1,954
7,871
13,754
19,571
25,295
30,912
36,41
41,782
47,028
52,159
57,179
62,092
66,898
71,596
76,189
80,681
85,076
89,375
93,577
97,678
101,673
105,558
109,326
112,97
116,479
119,844
123,054
126,102
128,979
131,679
134,192
136,511
138,626
140,531
142,215
143,669
144,884
145,849
146,554
146,99
147,148
147,021
146,599
145,876
144,847
143,507
141,852
139,88
137,59
134,983
132,059
128,823
125,28
121,435
117,296
112,875
108,18
103,226
98,025
92,593
86,946
81,1
75,075
68,888
62,561
56,112
49,565
42,94
36,259
29,547
22,825
16,116
9,443
2,827
-3,709
-10,145
-16,46
-22,637
-28,655
-34,498
-40,151
-45,598
-50,826
-55,823
-60,58
-65,088
-69,34
-73,33
-77,056
-80,514
-83,704
-86,626
-89,283
-91,676
-93,811
-95,694
-97,329
-98,726
-99,893
-100,84
-101,576
-102,113
-102,463
-102,638
-102,649
-102,511
-102,235
-101,836
-101,327
-100,72
-100,03
-99,271
-98,454
-97,593
-96,7
-95,787
-94,864
-93,942
-93,03
-92,138
-91,273
-90,442
-89,653
-88,911
-88,221
-87,589
-87,017
-86,509
-86,068
-85,695
-85,39
-85,155
-84,989
-84,892
-84,862
-84,899
-85
-85,163
-85,386
-85,665
-85,997
-86,378
-86,803
-87,268
-87,768
-88,298
-88,851
-89,424
-90,012
-90,608
-91,209
-91,81
-92,406
-92,994
-93,568
-94,126
-94,662
-95,174
-95,659
-96,112
-96,533
-96,917
-97,264
-97,572
-97,839
-98,063
-98,244
-98,38
-98,471
-98,514
-98,511
-98,459
-98,361
-98,218
-98,03
-97,799
-97,53
-97,224
-96,887
-96,521
-96,129
-95,716
-95,285
-94,84
-94,385
-93,924
-93,461
-93,001
-92,548
-92,107
-91,684
-91,283
-90,909
-90,564
-90,254
-89,981
-89,751
-89,566
-89,429
-89,346
-89,319
-89,354
-89,453
-89,619
-89,854
-90,157
-90,53
-90,97
-91,473
-92,035
-92,65
-93,313
-94,019
-94,764
-95,54
-96,344
-97,169
-98,015
-98,874
-99,739
-100,6
-101,445
-102,261
-103,037
-103,759
-104,413
-104,984
-105,461
-105,833
-106,096
-106,241
-106,258
-106,131
-105,84
-105,374
-104,728
-103,901
-102,889
-101,703
-100,354
-98,874
-97,311
-95,699
-94,06
-92,403
-90,726
-89,027
-87,314
-85,585
-83,839
-82,073
-80,275
-78,446
-76,6
-74,728
-72,807
-70,788
-68,582
-66,139
-63,452
-60,525
-57,391
-54,096
-50,681
-47,223
-43,835
-40,61
-37,633
-34,969
-32,646
-30,718
-29,262
-28,367
-28,147
-28,669
-29,942
-31,958
-34,683
-38,05
-41,981
-46,349
-50,975
-55,7
-60,391
-64,923
-69,209
-73,158
-76,698
-79,764
-82,286
-84,266
-85,782
-86,98
-88,133
-89,518
-91,27
-93,512
-96,397
-99,92
-104,022
-108,506
-112,718
-115,914
-117,69
-117,764
-116,007
-112,567
-107,483
-100,938
-93,963
-87,94
-83,845
-82,589
-84,697
-90,097
-99,083
-110,614
-121,288
-127,631
-126,289
-117,148
-103,95
-87,122
-63,62
-24,103
45,33
148,887
282,471
433,471
582,892
721,361
846,174
956,87
1053,769
1129,022
1169,191
1162,709
1104,335
996,589
851,33
686,892
521,128
372,031
252,81
167,168
112,517
80,479
60,204
43,041
25,369
6,759
-11,366
-24,984
-33,2
-36,668
-35,869
-34,423
-34,063
-34,981
-37,846
-41,202
-44,177
-46,889
-48,755
-49,91
-50,654
-50,656
-50,033
-49,051
-47,535
-45,564
-43,433
-41,234
-39,286
-38,092
-37,787
-38,426
-40,135
-42,802
-46,271
-50,411
-54,87
-59,222
-63,176
-66,469
-68,929
-70,522
-71,206
-70,965
-69,851
-67,931
-65,285
-62,005
-58,157
-53,795
-48,984
-43,794
-38,313
-32,638
-26,86
-21,067
-15,321
-9,66
-4,116
1,294
6,562
11,686
16,675
21,546
26,305
30,954
35,496
39,932
44,266
48,51
52,671
56,756
60,767
64,705
68,567
72,352
76,054
79,667
83,181
86,586
89,874
93,038
96,073
98,972
101,727
104,331
106,774
109,05
111,149
113,06
114,771
116,272
117,55
118,594
119,393
119,937
120,215
120,217
119,936
119,362
118,49
117,314
115,828
114,029
111,916
109,488
106,746
103,692
100,331
96,667
92,708
88,463
83,942
79,157
74,12
68,846
63,352
57,653
51,77
45,72
39,525
33,207
26,787
20,291
13,74
7,16
0,574
-5,993
-12,517
-18,974
-25,343
-31,6
-37,724
-43,695
-49,493
-55,1
-60,499
-65,674
-70,613
-75,301
-79,729
-83,887
-87,766
-91,362
-94,669
-97,684
-100,407
-102,837
-104,975
-106,826
-108,394
-109,684
-110,705
-111,464
-111,971
-112,238
-112,274
-112,094
-111,709
-111,134
-110,382
-109,469
-108,409
-107,216
-105,906
-104,494
-102,993
-101,419
-99,784
-98,102
-96,386
-94,649
-92,901
-91,153
-89,417
-87,7
-86,013
-84,362
-82,755
-81,197
-79,695
-78,252
-76,873
-75,56
-74,316
-73,141
-72,038
-71,005
-70,042
-69,149
-68,324
-67,563
-66,865
-66,226
-65,643
-65,113
-64,631
-64,195
-63,8
-63,442
-63,119
-62,826
-62,559
-62,316
-62,093
-61,887
-61,695
-61,514
-61,342
-61,176
-61,016
-60,86
-60,705
-60,551
-60,398
-60,244
-60,089
-59,932
-59,774
-59,616
-59,458
-59,301
-59,148
-59,001
-58,862
-58,734
-58,619
-58,519
-58,437
-58,374
-58,333
-58,315
-58,323
-58,357
-58,42
-58,514
-58,64
-58,799
-58,995
-59,226
-59,494
-59,8
-60,146
-60,53
-60,954
-61,418
-61,922
-62,468
-63,055
-63,684
-64,353
-65,06
-65,804
-66,581
-67,387
-68,214
-69,058
-69,911
-70,769
-71,625
-72,474
-73,311
-74,132
-74,933
-75,711
-76,462
-77,18
-77,856
-78,481
-79,048
-79,547
-79,97
-80,306
-80,542
-80,672
-80,691
-80,593
-80,374
-80,02
-79,516
-78,852
-78,028
-77,045
-75,909
-74,63
-73,22
-71,703
-70,123
-68,516
-66,92
-65,357
-63,828
-62,339
-60,9
-59,517
-58,207
-56,965
-55,763
-54,583
-53,416
-52,246
-51,062
-49,821
-48,443
-46,868
-45,047
-42,961
-40,64
-38,108
-35,391
-32,542
-29,616
-26,701
-23,924
-21,383
-19,141
-17,265
-15,8
-14,815
-14,43
-14,732
-15,774
-17,586
-20,133
-23,363
-27,232
-31,643
-36,487
-41,64
-46,926
-52,186
-57,317
-62,221
-66,841
-71,174
-75,153
-78,681
-81,767
-84,486
-87,005
-89,656
-92,722
-96,279
-100,434
-105,336
-110,907
-116,991
-123,168
-128,432
-131,824
-132,848
-131,092
-126,329
-118,861
-109,027
-97,553
-86,171
-76,682
-70,404
-68,556
-71,982
-79,674
-89,447
-99,122
-105,183
-106,954
-107,125
-104,515
-95,964
-73,177
-22,261
62,475
179,656
320,179
467,468
611,462
745,498
866,201
973,281
1059,953
1120,315
1147,96
1135,241
1081,737
986,505
853,71
697,984
534,456
383,341
261,88
172,502
113,09
75,075
46,925
27,321
14,869
7,167
4,785
1,947
-4,501
-11,668
-18,501
-21,06
-17,622
-12,087
-6,815
-3,915
-4,246
-5,648
-6,99
-8,474
-10,283
-12,953
-16,419
-19,665
-22,144
-23,883
-24,917
-25,317
-25,15
-24,411
-23,402
-22,839
-23,128
-24,332
-26,42
-29,16
-32,32
-35,756
-39,166
-42,109
-44,312
-45,633
-46,012
-45,533
-44,256
-42,199
-39,438
-36,068
-32,169
-27,825
-23,097
-18,023
-12,669
-7,114
-1,439
4,267
9,944
15,558
21,081
26,499
31,807
37,001
42,086
47,074
51,968
56,772
61,485
66,105
70,633
75,075
79,436
83,723
87,938
92,08
96,145
100,129
104,023
107,821
111,513
115,085
118,529
121,836
124,998
128,008
130,857
133,536
136,036
138,347
140,459
142,36
144,04
145,485
146,686
147,632
148,311
148,714
148,833
148,659
148,185
147,406
146,315
144,911
143,191
141,153
138,799
136,131
133,153
129,87
126,29
122,422
118,276
113,864
109,199
104,296
99,171
93,84
88,322
82,637
76,805
70,846
64,782
58,636
52,431
46,191
39,938
33,696
27,487
21,335
15,261
9,285
3,429
-2,289
-7,851
-13,24
-18,441
-23,44
-28,226
-32,786
-37,113
-41,198
-45,036
-48,623
-51,957
-55,035
-57,86
-60,432
-62,755
-64,833
-66,674
-68,283
-69,669
-70,841
-71,81
-72,586
-73,18
-73,606
-73,875
-74
-73,995
-73,872
-73,644
-73,324
-72,925
-72,46
-71,939
-71,376
-70,781
-70,163
-69,533
-68,9
-68,272
-67,655
-67,057
-66,484
-65,94
-65,429
-64,956
-64,523
-64,133
-63,786
-63,484
-63,228
-63,016
-62,848
-62,724
-62,641
-62,598
-62,592
-62,623
-62,686
-62,781
-62,903
-63,051
-63,22
-63,41
-63,615
-63,835
-64,066
-64,306
-64,552
-64,804
-65,058
-65,314
-65,57
-65,825
-66,078
-66,328
-66,575
-66,817
-67,055
-67,287
-67,514
-67,734
-67,949
-68,157
-68,359
-68,553
-68,739
-68,916
-69,084
-69,243
-69,39
-69,527
-69,653
-69,767
-69,871
-69,964
-70,047
-70,12
-70,184
-70,238
-70,283
-70,319
-70,346
-70,365
-70,375
-70,379
-70,376
-70,368
-70,356
-70,341
-70,325
-70,31
-70,297
-70,289
-70,288
-70,296
-70,317
-70,353
-70,409
-70,487
-70,591
-70,725
-70,89
-71,088
-71,321
-71,587
-71,885
-72,213
-72,571
-72,956
-73,366
-73,798
-74,252
-74,726
-75,219
-75,729
-76,25
-76,777
-77,303
-77,82
-78,32
-78,791
-79,222
-79,602
-79,919
-80,165
-80,329
-80,399
-80,361
-80,193
-79,883
-79,422
-78,804
-78,03
-77,103
-76,032
-74,833
-73,534
-72,163
-70,744
-69,3
-67,844
-66,386
-64,936
-63,507
-62,116
-60,763
-59,434
-58,105
-56,745
-55,319
-53,793
-52,12
-50,229
-48,065
-45,586
-42,764
-39,598
-36,099
-32,286
-28,19
-23,847
-19,326
-14,732
-10,189
-5,831
-1,789
1,813
4,846
7,161
8,635
9,189
8,77
7,365
4,99
1,665
-2,567
-7,639
-13,461
-19,885
-26,727
-33,796
-40,899
-47,858
-54,533
-60,75
-66,354
-71,32
-75,679
-79,554
-83,207
-86,815
-90,5
-94,477
-98,886
-103,748
-109,068
-114,535
-119,586
-123,801
-126,68
-127,711
-126,695
-123,508
-118,152
-111,264
-103,755
-96,523
-90,855
-87,973
-88,687
-93,733
-103,562
-116,949
-131,365
-144,371
-152,634
-155,576
-155,825
-152,661
-143,496
-120,796
-71,177
11,796
127,334
267,495
414,838
555,267
680,753
786,425
875,11
950,47
1011,598
1056,524
1076,85
1060,111
999,591
892,421
746,294
581,075
416,124
271,683
161,322
84,029
36,057
8,732
-8,313
-16,002
-16,736
-14,066
-8,88
-7,962
-14,509
-25,318
-38,583
-49,737
-56,438
-61,612
-66,371
-71,263
-76,04
-78,34
-77,304
-73,476
-67,541
-60,606
-53,544
-46,838
-41,025
-36,599
-33,739
-32,388
-32,402
-33,571
-35,705
-38,643
-42,171
-46,046
-50,074
-54,093
-57,944
-61,479
-64,535
-66,944
-68,603
-69,46
-69,499
-68,739
-67,213
-64,963
-62,056
-58,573
-54,596
-50,202
-45,468
-40,459
-35,251
-29,92
-24,541
-19,185
-13,9
-8,715
-3,645
1,304
6,137
10,857
15,479
20,023
24,501
28,922
33,293
37,615
41,891
46,128
50,331
54,502
58,64
62,743
66,804
70,817
74,772
78,659
82,464
86,172
89,769
93,243
96,581
99,77
102,797
105,647
108,305
110,758
112,989
114,983
116,723
118,192
119,375
120,258
120,825
121,064
120,963
120,512
119,702
118,526
116,98
115,059
112,763
110,09
107,045
103,632
99,856
95,727
91,254
86,45
81,33
75,91
70,207
64,241
58,033
51,605
44,981
38,186
31,246
24,187
17,036
9,822
2,574
-4,68
-11,912
-19,094
-26,198
-33,198
-40,068
-46,784
-53,323
-59,664
-65,787
-71,674
-77,309
-82,677
-87,766
-92,564
-97,064
-101,259
-105,144
-108,715
-111,972
-114,915
-117,547
-119,872
-121,895
-123,623
-125,065
-126,231
-127,132
-127,779
-128,187
-128,369
-128,341
-128,117
-127,712
-127,144
-126,428
-125,581
-124,617
-123,553
-122,404
-121,184
-119,908
-118,59
-117,241
-115,875
-114,502
-113,133
-111,778
-110,445
-109,143
-107,878
-106,657
-105,486
-104,369
-103,31
-102,312
-101,377
-100,508
-99,704
-98,967
-98,295
-97,688
-97,145
-96,662
-96,238
-95,871
-95,556
-95,292
-95,074
-94,9
-94,766
-94,668
-94,604
-94,569
-94,56
-94,575
-94,61
-94,662
-94,729
-94,806
-94,893
-94,985
-95,082
-95,181
-95,279
-95,375
-95,467
-95,553
-95,632
-95,702
-95,762
-95,81
-95,846
-95,869
-95,879
-95,876
-95,857
-95,824
-95,775
-95,71
-95,629
-95,531
-95,415
-95,282
-95,13
-94,96
-94,772
-94,567
-94,344
-94,104
-93,849
-93,579
-93,295
-92,996
-92,685
-92,362
-92,029
-91,686
-91,337
-90,983
-90,626
-90,268
-89,911
-89,558
-89,21
-88,868
-88,534
-88,21
-87,896
-87,597
-87,313
-87,046
-86,798
-86,571
-86,367
-86,187
-86,031
-85,899
-85,79
-85,701
-85,632
-85,578
-85,536
-85,503
-85,475
-85,449
-85,424
-85,394
-85,355
-85,302
-85,23
-85,134
-85,006
-84,835
-84,61
-84,324
-83,969
-83,54
-83,028
-82,429
-81,735
-80,942
-80,05
-79,056
-77,951
-76,724
-75,361
-73,857
-72,221
-70,471
-68,622
-66,688
-64,682
-62,63
-60,562
-58,499
-56,449
-54,398
-52,334
-50,257
-48,185
-46,152
-44,193
-42,324
-40,546
-38,851
-37,245
-35,734
-34,31
-32,945
-31,591
-30,235
-28,915
-27,706
-26,69
-25,918
-25,409
-25,165
-25,198
-25,528
-26,178
-27,158
-28,438
-30,004
-31,86
-34,042
-36,604
-39,541
-42,768
-46,151
-49,555
-52,886
-56,101
-59,144
-61,929
-64,396
-66,493
-68,234
-69,728
-71,022
-72,102
-73,007
-73,787
-74,635
-75,935
-77,928
-80,713
-84,425
-89,091
-94,626
-100,891
-107,276
-112,812
-116,851
-118,904
-118,555
-115,773
-110,659
-103,496
-95,361
-87,881
-82,377
-79,988
-81,799
-87,317
-94,706
-102,312
-107,362
-109,395
-111,394
-112,844
-110,723
-96,323
-54,408
23,173
137,03
278,192
427,083
569,568
696,952
807,057
906,779
996,51
1072,123
1125,51
1140,524
1109,267
1030,767
908,741
758,967
596,822
436,386
294,577
181,041
99,537
49,496
21,502
4,535
-7,404
-17,141
-23,219
-22,351
-15,279
-4,824
5,764
13,125
16,076
14,617
9,121
0,767
-9,347
-20,268
-30,878
-40,544
-48,716
-54,51
-57,655
-58,399
-57,108
-54,429
-51,015
-47,212
-43,516
-40,687
-39,099
-38,854
-39,925
-42,004
-44,817
-48,21
-51,897
-55,481
-58,676
-61,251
-63,04
-64,033
-64,211
-63,541
-62,047
-59,766
-56,743
-53,047
-48,744
-43,885
-38,533
-32,754
-26,614
-20,195
-13,574
-6,83
-0,036
6,753
13,5
20,175
26,759
33,239
39,606
45,863
52,018
58,075
64,037
69,904
75,675
81,351
86,938
92,435
97,846
103,166
108,391
113,516
118,533
123,436
128,213
132,855
137,347
141,68
145,842
149,825
153,621
157,217
160,606
163,775
166,718
169,422
171,879
174,076
176,004
177,651
179,008
180,066
180,817
181,252
181,365
181,15
180,602
179,718
178,497
176,938
175,042
172,812
170,252
167,368
164,169
160,663
156,86
152,774
148,418
143,807
138,958
133,887
128,614
123,157
117,538
111,777
105,896
99,918
93,864
87,759
81,625
75,484
69,361
63,277
57,255
51,315
45,478
39,763
34,19
28,774
23,532
18,478
13,626
8,987
4,571
0,387
-3,559
-7,26
-10,712
-13,913
-16,862
-19,558
-22,002
-24,198
-26,148
-27,857
-29,332
-30,577
-31,601
-32,411
-33,016
-33,426
-33,648
-33,694
-33,574
-33,297
-32,875
-32,318
-31,636
-30,841
-29,942
-28,949
-27,874
-26,725
-25,511
-24,243
-22,927
-21,573
-20,189
-18,781
-17,357
-15,924
-14,488
-13,057
-11,635
-10,229
-8,844
-7,486
-6,159
-4,87
-3,623
-2,422
-1,273
-0,181
0,851
1,817
2,712
3,534
4,276
4,936
5,509
5,992
6,382
6,674
6,866
6,956
6,94
6,817
6,584
6,239
5,781
5,208
4,521
3,718
2,8
1,766
0,619
-0,642
-2,013
-3,492
-5,077
-6,764
-8,549
-10,427
-12,394
-14,444
-16,571
-18,769
-21,03
-23,348
-25,715
-28,124
-30,568
-33,039
-35,529
-38,032
-40,541
-43,049
-45,55
-48,039
-50,508
-52,952
-55,366
-57,743
-60,08
-62,37
-64,611
-66,797
-68,925
-70,993
-72,996
-74,935
-76,806
-78,609
-80,343
-82,007
-83,604
-85,133
-86,596
-87,995
-89,332
-90,611
-91,834
-93,005
-94,126
-95,2
-96,229
-97,213
-98,152
-99,045
-99,891
-100,687
-101,433
-102,125
-102,764
-103,347
-103,873
-104,343
-104,756
-105,111
-105,405
-105,633
-105,79
-105,871
-105,868
-105,773
-105,58
-105,277
-104,856
-104,312
-103,64
-102,831
-101,874
-100,753
-99,456
-97,982
-96,331
-94,508
-92,522
-90,388
-88,127
-85,778
-83,377
-80,957
-78,552
-76,169
-73,819
-71,515
-69,269
-67,096
-65,003
-62,967
-60,964
-58,975
-56,976
-54,943
-52,84
-50,59
-48,132
-45,42
-42,418
-39,137
-35,604
-31,84
-27,886
-23,8
-19,654
-15,564
-11,665
-8,054
-4,82
-2,042
0,207
1,803
2,639
2,648
1,784
0,057
-2,494
-5,834
-9,907
-14,623
-19,872
-25,488
-31,265
-37,069
-42,798
-48,39
-53,819
-58,983
-63,826
-68,404
-72,851
-77,407
-82,325
-87,738
-93,711
-100,39
-107,783
-115,715
-123,884
-131,596
-138,001
-142,442
-144,452
-143,633
-139,92
-133,68
-125,48
-116,437
-108,232
-102,445
-100,327
-103,17
-110,938
-121,485
-132,661
-141,872
-147,947
-153,893
-161,319
-167,487
-164,712
-138,049
-74,521
28,433
164,354
316,823
468,628
611,32
740,894
857,932
960,959
1041,379
1090,597
1099,522
1064,751
990,276
880,832
746,319
597,92
446,761
308,256
193,684
107,653
49,428
10,215
-20,105
-46,706
-71,263
-91,407
-103,271
-106,659
-103,684
-97,365
-91,004
-85,504
-80,475
-75,739
-71,241
-67,64
-65,473
-64,548
-64,655
-65,926
-68,489
-72,402
-77,258
-81,947
-85,73
-88,449
-90,065
-90,652
-90,316
-89,105
-87,416
-86,086
-85,621
-86,169
-87,732
-90,05
-92,864
-96,004
-99,132
-101,776
-103,647
-104,589
-104,545
-103,618
-101,881
-99,365
-96,155
-92,347
-88,02
-83,254
-78,108
-72,616
-66,839
-60,855
-54,739
-48,573
-42,412
-36,289
-30,229
-24,241
-18,33
-12,498
-6,741
-1,05
4,577
10,14
15,639
21,07
26,431
31,727
36,961
42,137
47,256
52,313
57,303
62,217
67,047
71,782
76,411
80,92
85,298
89,536
93,623
97,551
101,308
104,883
108,266
111,444
114,405
117,137
119,626
121,859
123,823
125,506
126,896
127,981
128,751
129,196
129,306
129,074
128,493
127,558
126,263
124,607
122,587
120,205
117,461
114,359
110,904
107,102
102,962
98,493
93,707
88,615
83,232
77,574
71,658
65,501
59,123
52,545
45,788
38,874
31,826
24,668
17,425
10,121
2,78
-4,572
-11,911
-19,213
-26,454
-33,612
-40,663
-47,587
-54,363
-60,972
-67,395
-73,617
-79,621
-85,393
-90,922
-96,196
-101,204
-105,941
-110,398
-114,571
-118,458
-122,056
-125,366
-128,389
-131,128
-133,588
-135,774
-137,694
-139,356
-140,769
-141,944
-142,891
-143,625
-144,157
-144,501
-144,672
-144,684
-144,553
-144,293
-143,919
-143,447
-142,891
-142,266
-141,587
-140,867
-140,12
-139,36
-138,599
-137,848
-137,12
-136,423
-135,768
-135,163
-134,614
-134,129
-133,714
-133,371
-133,107
-132,922
-132,819
-132,798
-132,86
-133,002
-133,224
-133,521
-133,89
-134,328
-134,828
-135,385
-135,993
-136,647
-137,34
-138,066
-138,817
-139,587
-140,369
-141,156
-141,939
-142,714
-143,471
-144,206
-144,912
-145,583
-146,215
-146,802
-147,34
-147,824
-148,253
-148,621
-148,927
-149,168
-149,343
-149,451
-149,492
-149,467
-149,377
-149,225
-149,014
-148,747
-148,428
-148,06
-147,649
-147,197
-146,71
-146,191
-145,645
-145,076
-144,491
-143,894
-143,291
-142,685
-142,082
-141,486
-140,902
-140,333
-139,781
-139,249
-138,741
-138,258
-137,803
-137,379
-136,986
-136,626
-136,3
-136,008
-135,749
-135,519
-135,315
-135,133
-134,967
-134,812
-134,66
-134,504
-134,338
-134,155
-133,949
-133,715
-133,447
-133,137
-132,78
-132,369
-131,897
-131,353
-130,727
-130,007
-129,184
-128,251
-127,199
-126,024
-124,718
-123,278
-121,703
-119,99
-118,137
-116,136
-113,975
-111,646
-109,158
-106,521
-103,755
-100,891
-97,953
-94,972
-91,988
-89,033
-86,126
-83,278
-80,476
-77,71
-74,984
-72,312
-69,725
-67,251
-64,892
-62,647
-60,511
-58,458
-56,465
-54,494
-52,478
-50,375
-48,181
-45,924
-43,678
-41,524
-39,519
-37,701
-36,09
-34,696
-33,543
-32,644
-31,993
-31,603
-31,494
-31,71
-32,345
-33,46
-35,052
-37,061
-39,365
-41,822
-44,311
-46,745
-49,028
-51,043
-52,766
-54,274
-55,725
-57,372
-59,408
-61,87
-64,836
-68,463
-72,672
-77,283
-81,961
-86,004
-88,918
-90,457
-90,098
-87,382
-82,32
-75,056
-66,151
-56,836
-47,93
-40,138
-34,809
-33,033
-35,257
-41,775
-52,247
-65,581
-80,961
-96,29
-107,403
-110,529
-103,267
-86,293
-62,415
-31,943
9,392
70,989
161,041
279,97
420,138
566,13
704,025
827,741
936,018
1030,958
1110,767
1166,672
1186,818
1160,121
1082,227
956,391
795,502
619,545
448,705
302,858
192,918
118,142
73,125
47,773
33,68
28,228
28,559
30,933
31,793
27,202
16,846
5,664
-1,232
-0,892
6,191
15,343
22,454
25,972
26,316
25,498
24,381
22,447
19,206
14,414
8,722
3,29
-1,369
-5,216
-8,163
-10,156
-11,164
-11,225
-10,855
-10,788
-11,368
-12,668
-14,619
-16,994
-19,616
-22,326
-24,787
-26,611
-27,576
-27,571
-26,604
-24,778
-22,154
-18,785
-14,759
-10,175
-5,124
0,315
6,085
12,134
18,394
24,787
31,233
37,667
44,049
50,352
56,558
62,66
68,652
74,537
80,322
86,006
91,588
97,068
102,44
107,705
112,866
117,927
122,893
127,766
132,548
137,237
141,827
146,314
150,689
154,945
159,072
163,062
166,909
170,606
174,149
177,529
180,739
183,771
186,617
189,266
191,708
193,932
195,926
197,678
199,177
200,411
201,371
202,043
202,42
202,491
202,247
201,68
200,784
199,551
197,979
196,062
193,799
191,191
188,237
184,94
181,305
177,337
173,045
168,437
163,523
158,317
152,832
147,083
141,086
134,861
128,426
121,802
115,011
108,075
101,019
93,867
86,644
79,374
72,083
64,797
57,54
50,338
43,213
36,189
29,29
22,536
15,948
9,546
3,347
-2,632
-8,375
-13,87
-19,102
-24,063
-28,744
-33,136
-37,234
-41,035
-44,536
-47,736
-50,637
-53,241
-55,553
-57,578
-59,323
-60,796
-62,007
-62,967
-63,687
-64,181
-64,461
-64,543
-64,439
-64,166
-63,739
-63,172
-62,483
-61,686
-60,797
-59,831
-58,804
-57,729
-56,622
-55,495
-54,364
-53,239
-52,133
-51,056
-50,02
-49,033
-48,104
-47,24
-46,448
-45,734
-45,101
-44,554
-44,096
-43,727
-43,448
-43,26
-43,16
-43,148
-43,219
-43,37
-43,597
-43,896
-44,261
-44,686
-45,165
-45,693
-46,262
-46,866
-47,497
-48,148
-48,811
-49,478
-50,143
-50,797
-51,434
-52,048
-52,63
-53,175
-53,677
-54,13
-54,53
-54,872
-55,15
-55,363
-55,506
-55,578
-55,578
-55,506
-55,36
-55,144
-54,86
-54,51
-54,098
-53,628
-53,104
-52,53
-51,911
-51,253
-50,562
-49,844
-49,105
-48,353
-47,595
-46,84
-46,095
-45,368
-44,666
-43,996
-43,367
-42,786
-42,258
-41,792
-41,393
-41,068
-40,823
-40,665
-40,598
-40,625
-40,748
-40,969
-41,288
-41,703
-42,208
-42,799
-43,472
-44,222
-45,043
-45,929
-46,874
-47,872
-48,919
-50,01
-51,136
-52,286
-53,447
-54,606
-55,75
-56,864
-57,933
-58,941
-59,871
-60,711
-61,455
-62,092
-62,61
-62,994
-63,222
-63,279
-63,163
-62,871
-62,405
-61,77
-60,976
-60,051
-59,039
-57,982
-56,908
-55,831
-54,751
-53,673
-52,605
-51,556
-50,536
-49,531
-48,525
-47,508
-46,48
-45,437
-44,358
-43,192
-41,858
-40,289
-38,459
-36,369
-34,044
-31,509
-28,797
-25,96
-23,08
-20,274
-17,65
-15,29
-13,255
-11,602
-10,408
-9,78
-9,838
-10,662
-12,287
-14,717
-17,939
-21,943
-26,682
-32,055
-37,907
-44,035
-50,266
-56,475
-62,519
-68,244
-73,558
-78,42
-82,877
-87,09
-91,173
-95,156
-99,166
-103,387
-107,836
-112,396
-116,762
-120,428
-123,123
-124,84
-125,363
-124,288
-121,5
-117,125
-111,7
-106,176
-101,035
-96,353
-92,658
-90,882
-91,69
-95,685
-102,906
-112,622
-124,79
-138,389
-150,286
-157,496
-156,98
-148,676
-136,654
-121,523
-99,948
-63,294
1,81
100,728
230,162
380,407
535,853
684,734
820,49
937,189
1029,65
1093,303
1120,977
1107,174
1050,898
951,432
816,602
661,903
504,5
365,019
254,747
173,372
114,757
66,766
22,477
-17,826
-51,362
-72,855
-80,734
-78,136
-69,391
-59,268
-50,587
-44,006
-39,54
-37,21
-37,52
-40,488
-45,419
-51,5
-57,884
-64,091
-70,056
-75,361
-79,133
-81,021
-81,162
-79,86
-77,664
-74,938
-71,799
-68,672
-66,277
-65,039
-65,096
-66,396
-68,636
-71,571
-75,058
-78,8
-82,385
-85,488
-87,867
-89,401
-90,114
-90,019
-89,118
-87,444
-85,052
-82,008
-78,393
-74,269
-69,681
-64,682
-59,332
-53,704
-47,881
-41,938
-35,948
-29,961
-24,01
-18,119
-12,3
-6,561
-0,907
4,665
10,167
15,604
20,98
26,296
31,549
36,742
41,88
46,966
52,001
56,984
61,906
66,761
71,539
76,231
80,824
85,305
89,656
93,865
97,919
101,805
105,512
109,027
112,337
115,429
118,291
120,91
123,273
125,367
127,179
128,696
129,906
130,798
131,363
131,591
131,473
131,004
130,178
128,99
127,439
125,525
123,248
120,611
117,62
114,281
110,602
106,593
102,268
97,639
92,722
87,534
82,092
76,416
70,525
64,443
58,19
51,789
45,264
38,638
31,937
25,184
18,404
11,622
4,862
-1,853
-8,499
-15,053
-21,495
-27,803
-33,959
-39,944
-45,742
-51,338
-56,718
-61,87
-66,785
-71,452
-75,866
-80,021
-83,913
-87,54
-90,902
-94
-96,836
-99,414
-101,738
-103,816
-105,654
-107,26
-108,644
-109,815
-110,784
-111,562
-112,16
-112,59
-112,865
-112,996
-112,997
-112,88
-112,658
-112,342
-111,945
-111,478
-110,954
-110,382
-109,773
-109,136
-108,481
-107,816
-107,148
-106,484
-105,832
-105,196
-104,582
-103,993
-103,433
-102,906
-102,412
-101,954
-101,533
-101,148
-100,8
-100,488
-100,211
-99,967
-99,756
-99,575
-99,421
-99,292
-99,184
-99,095
-99,021
-98,959
-98,905
-98,857
-98,81
-98,762
-98,71
-98,652
-98,584
-98,505
-98,412
-98,304
-98,179
-98,035
-97,872
-97,689
-97,486
-97,263
-97,02
-96,758
-96,479
-96,182
-95,872
-95,548
-95,215
-94,874
-94,528
-94,182
-93,837
-93,499
-93,172
-92,86
-92,567
-92,299
-92,059
-91,853
-91,685
-91,558
-91,478
-91,446
-91,467
-91,543
-91,676
-91,869
-92,122
-92,437
-92,813
-93,253
-93,753
-94,313
-94,932
-95,606
-96,331
-97,104
-97,92
-98,772
-99,655
-100,56
-101,481
-102,408
-103,333
-104,245
-105,134
-105,989
-106,797
-107,546
-108,224
-108,817
-109,314
-109,701
-109,968
-110,103
-110,094
-109,933
-109,608
-109,111
-108,436
-107,573
-106,517
-105,263
-103,808
-102,151
-100,291
-98,23
-95,971
-93,518
-90,882
-88,073
-85,104
-81,99
-78,749
-75,399
-71,963
-68,464
-64,922
-61,36
-57,801
-54,267
-50,784
-47,378
-44,075
-40,902
-37,882
-35,037
-32,385
-29,943
-27,72
-25,722
-23,957
-22,431
-21,164
-20,17
-19,465
-19,066
-18,98
-19,209
-19,748
-20,57
-21,638
-22,918
-24,379
-26,004
-27,777
-29,666
-31,634
-33,634
-35,602
-37,49
-39,224
-40,678
-41,798
-42,601
-43,186
-43,774
-44,553
-45,589
-46,997
-48,959
-51,532
-54,654
-58,015
-61,024
-63,31
-64,809
-65,498
-65,254
-63,888
-61,358
-58,032
-54,706
-51,945
-49,828
-48,258
-47,448
-48,049
-50,577
-55,303
-61,994
-70,261
-80,437
-91,82
-101,854
-107,887
-106,966
-99,207
-88,463
-74,915
-55,519
-21,349
41,397
137,508
264,475
411,722
561,694
704,549
835,128
951,234
1052,733
1133,026
1181,524
1187,169
1143,069
1048,902
912,893
752,366
585,591
431,823
305,895
209,75
139,507
86,528
41,014
3,23
-21,824
-30,349
-21,108
-2,65
12,275
16,363
8,851
-3,417
-11,775
-12,864
-8,852
-4,874
-4,596
-8,54
-15,08
-21,869
-27,937
-33,037
-36,571
-38,447
-38,766
-37,616
-35,523
-32,909
-29,905
-26,928
-24,667
-23,533
-23,693
-25,112
-27,484
-30,543
-34,131
-37,955
-41,618
-44,809
-47,286
-48,929
-49,757
-49,783
-49,006
-47,461
-45,197
-42,279
-38,789
-34,79
-30,331
-25,469
-20,264
-14,789
-9,126
-3,353
2,46
8,261
14,019
19,71
25,32
30,843
36,271
41,61
46,871
52,06
57,18
62,232
67,214
72,127
76,977
81,765
86,492
91,154
95,745
100,255
104,675
108,994
113,199
117,276
121,207
124,979
128,578
131,992
135,207
138,211
140,99
143,53
145,819
147,844
149,59
151,044
152,193
153,024
153,525
153,686
153,497
152,951
152,039
150,757
149,101
147,069
144,66
141,876
138,719
135,195
131,311
127,076
122,5
117,595
112,375
106,857
101,056
94,992
88,682
82,149
75,413
68,496
61,423
54,216
46,9
39,5
32,041
24,549
17,048
9,564
2,121
-5,256
-12,544
-19,722
-26,767
-33,66
-40,382
-46,914
-53,242
-59,351
-65,226
-70,858
-76,235
-81,351
-86,197
-90,77
-95,064
-99,079
-102,812
-106,264
-109,436
-112,331
-114,953
-117,306
-119,395
-121,228
-122,811
-124,153
-125,263
-126,15
-126,825
-127,297
-127,577
-127,676
-127,606
-127,377
-127,001
-126,489
-125,853
-125,103
-124,25
-123,306
-122,279
-121,18
-120,02
-118,805
-117,547
-116,253
-114,931
-113,589
-112,235
-110,877
-109,521
-108,173
-106,841
-105,53
-104,245
-102,992
-101,775
-100,599
-99,466
-98,381
-97,347
-96,365
-95,438
-94,569
-93,758
-93,005
-92,313
-91,68
-91,106
-90,591
-90,133
-89,732
-89,385
-89,092
-88,849
-88,656
-88,509
-88,407
-88,345
-88,32
-88,33
-88,369
-88,435
-88,523
-88,63
-88,75
-88,881
-89,018
-89,158
-89,298
-89,435
-89,565
-89,685
-89,795
-89,891
-89,972
-90,037
-90,085
-90,117
-90,132
-90,132
-90,117
-90,09
-90,051
-90,004
-89,948
-89,888
-89,826
-89,763
-89,703
-89,649
-89,605
-89,573
-89,557
-89,561
-89,588
-89,64
-89,721
-89,832
-89,976
-90,153
-90,363
-90,608
-90,885
-91,194
-91,534
-91,901
-92,292
-92,703
-93,129
-93,564
-94,002
-94,435
-94,855
-95,254
-95,623
-95,955
-96,241
-96,473
-96,641
-96,739
-96,757
-96,687
-96,52
-96,25
-95,869
-95,369
-94,745
-93,993
-93,109
-92,091
-90,942
-89,663
-88,26
-86,737
-85,103
-83,368
-81,543
-79,643
-77,682
-75,674
-73,636
-71,589
-69,55
-67,541
-65,584
-63,697
-61,899
-60,212
-58,652
-57,239
-55,989
-54,91
-54,011
-53,3
-52,788
-52,494
-52,43
-52,603
-53,022
-53,692
-54,61
-55,778
-57,18
-58,784
-60,558
-62,458
-64,449
-66,509
-68,617
-70,754
-72,893
-74,977
-76,953
-78,778
-80,398
-81,788
-82,92
-83,728
-84,25
-84,615
-84,989
-85,651
-86,838
-88,642
-91,246
-94,857
-99,443
-104,914
-110,984
-116,966
-122,345
-126,747
-129,519
-130,107
-128,308
-123,956
-117,354
-109,57
-101,446
-93,839
-88,284
-86,165
-88,477
-96,334
-109,147
-124,284
-139,78
-153,109
-163,416
-172,854
-180,013
-181,102
-167,94
-127,332
-52,792
55,682
190,69
335,536
476,995
606,485
718,152
814,459
898,194
967,713
1021,572
1051,161
1043,112
990,44
888,755
744,001
576,312
405,82
254,479
138,548
57,881
8,297
-20,043
-38,937
-49,335
-53,026
-52,481
-47,801
-46,175
-50,689
-57,715
-65,269
-68,401
-65,562
-61,594
-59,126
-59,686
-63,34
-67,406
-70,674
-73,329
-75,353
-76,684
-77,027
-76,121
-74,1
-71,387
-68,313
-64,985
-61,652
-58,838
-56,997
-56,369
-56,977
-58,603
-60,997
-63,981
-67,278
-70,506
-73,333
-75,498
-76,856
-77,398
-77,131
-76,067
-74,243
-71,719
-68,557
-64,831
-60,603
-55,919
-50,835
-45,416
-39,737
-33,883
-27,932
-21,959
-16,019
-10,144
-4,359
1,327
6,909
12,386
17,762
23,051
28,259
33,391
38,449
43,433
48,346
53,195
57,986
62,722
67,403
72,023
76,577
81,059
85,459
89,768
93,973
98,061
102,019
105,837
109,506
113,015
116,354
119,511
122,475
125,235
127,78
130,098
132,176
134,002
135,562
136,846
137,842
138,539
138,927
138,998
138,742
138,154
137,228
135,959
134,345
132,385
130,08
127,431
124,444
121,123
117,477
113,516
109,249
104,69
99,852
94,75
89,402
83,825
78,036
72,056
65,905
59,604
53,175
46,641
40,024
33,348
26,637
19,914
13,203
6,526
-0,093
-6,631
-13,069
-19,384
-25,557
-31,569
-37,403
-43,043
-48,474
-53,683
-58,658
-63,388
-67,866
-72,085
-76,038
-79,722
-83,136
-86,276
-89,145
-91,742
-94,07
-96,134
-97,937
-99,485
-100,785
-101,844
-102,669
-103,272
-103,66
-103,844
-103,835
-103,643
-103,281
-102,759
-102,091
-101,288
-100,361
-99,324
-98,189
-96,967
-95,671
-94,313
-92,903
-91,453
-89,973
-88,474
-86,964
-85,453
-83,948
-82,456
-80,986
-79,544
-78,136
-76,77
-75,45
-74,181
-72,97
-71,82
-70,735
-69,717
-68,769
-67,893
-67,092
-66,365
-65,714
-65,139
-64,64
-64,217
-63,869
-63,593
-63,387
-63,247
-63,17
-63,148
-63,178
-63,252
-63,362
-63,501
-63,663
-63,842
-64,033
-64,229
-64,423
-64,609
-64,782
-64,934
-65,056
-65,137
-65,163
-65,125
-65,012
-64,817
-64,531
-64,147
-63,657
-63,055
-62,342
-61,513
-60,562
-59,48
-58,249
-56,862
-55,327
-53,654
-51,865
-49,979
-48,013
-45,991
-43,949
-41,911
-39,894
-37,898
-35,902
-33,903
-31,91
-29,944
-28,045
-26,233
-24,506
-22,861
-21,287
-19,772
-18,314
-16,883
-15,423
-13,911
-12,35
-10,781
-9,294
-7,95
-6,789
-5,839
-5,103
-4,604
-4,393
-4,501
-4,95
-5,759
-6,921
-8,467
-10,472
-12,961
-15,938
-19,341
-23,032
-26,901
-30,854
-34,797
-38,67
-42,367
-45,735
-48,72
-51,361
-53,768
-56,176
-58,726
-61,415
-64,362
-67,755
-71,62
-75,865
-80,14
-83,828
-86,538
-88,147
-88,378
-86,857
-83,513
-78,515
-72,478
-66,411
-60,904
-56,208
-52,96
-52,029
-53,915
-58,989
-67,046
-77,311
-89,801
-103,529
-115,527
-123,157
-123,684
-117,243
-107,971
-96,354
-79,205
-48,633
8,011
96,272
214,21
354,359
503,489
650,451
787,148
905,704
997,922
1057,304
1079,056
1060,583
1006,072
919,854
804,742
668,075
517,09
362,861
223,58
112,934
37,497
-3,127
-20,069
-26,131
-27,752
-27,765
-24,684
-15,128
-0,364
15,981
30,508
39,49
41,393
36,997
27,47
14,406
-0,235
-14,763
-27,861
-38,209
-44,916
-47,888
-47,393
-44,033
-38,795
-32,621
-26,33
-20,823
-16,738
-14,305
-13,584
-14,414
-16,46
-19,414
-22,952
-26,662
-30,235
-33,469
-36,186
-38,285
-39,716
-40,427
-40,407
-39,689
-38,293
-36,238
-33,564
-30,31
-26,531
-22,293
-17,659
-12,693
-7,465
-2,045
3,493
9,073
14,64
20,158
25,597
30,941
36,178
41,302
46,315
51,232
56,06
60,805
65,472
70,064
74,583
79,035
83,425
87,755
92,027
96,237
100,383
104,46
108,46
112,377
116,199
119,912
123,506
126,969
130,29
133,459
136,465
139,295
141,937
144,379
146,61
148,614
150,38
151,891
153,136
154,1
154,77
155,136
155,184
154,906
154,292
153,333
152,023
150,357
148,331
145,942
143,19
140,076
136,604
132,777
128,605
124,094
119,257
114,105
108,654
102,919
96,918
90,67
84,196
77,519
70,661
63,646
56,5
49,249
41,92
34,54
27,135
19,734
12,363
5,048
-2,185
-9,311
-16,307
-23,149
-29,816
-36,287
-42,545
-48,572
-54,352
-59,872
-65,12
-70,086
-74,761
-79,139
-83,215
-86,987
-90,452
-93,612
-96,469
-99,027
-101,291
-103,269
-104,969
-106,401
-107,576
-108,508
-109,208
-109,691
-109,971
-110,063
-109,982
-109,744
-109,363
-108,856
-108,237
-107,521
-106,722
-105,854
-104,931
-103,965
-102,967
-101,948
-100,919
-99,89
-98,87
-97,867
-96,889
-95,943
-95,037
-94,177
-93,369
-92,616
-91,922
-91,29
-90,721
-90,217
-89,779
-89,404
-89,094
-88,847
-88,663
-88,54
-88,478
-88,473
-88,525
-88,631
-88,789
-88,998
-89,255
-89,559
-89,909
-90,303
-90,742
-91,224
-91,75
-92,316
-92,922
-93,565
-94,243
-94,951
-95,683
-96,433
-97,197
-97,969
-98,745
-99,521
-100,293
-101,058
-101,815
-102,562
-103,296
-104,01
-104,697
-105,349
-105,957
-106,512
-107,005
-107,423
-107,757
-107,998
-108,145
-108,191
-108,129
-107,946
-107,625
-107,155
-106,534
-105,762
-104,841
-103,776
-102,578
-101,275
-99,91
-98,524
-97,147
-95,791
-94,454
-93,143
-91,862
-90,62
-89,42
-88,247
-87,084
-85,919
-84,751
-83,576
-82,37
-81,081
-79,623
-77,928
-75,964
-73,732
-71,249
-68,535
-65,62
-62,551
-59,411
-56,315
-53,364
-50,632
-48,174
-46,042
-44,311
-43,088
-42,495
-42,618
-43,491
-45,115
-47,477
-50,565
-54,344
-58,736
-63,586
-68,698
-73,914
-79,098
-84,155
-88,986
-93,422
-97,368
-100,818
-103,849
-106,685
-109,536
-112,488
-115,706
-119,434
-123,657
-128,272
-133,013
-137,159
-140,154
-141,637
-140,961
-137,606
-131,584
-123,039
-112,566
-101,498
-90,849
-81,651
-75,53
-73,711
-76,933
-85,825
-100,133
-118,705
-139,514
-158,976
-173,067
-178,901
-176,428
-166,981
-149,686
-119,954
-68,568
12,598
124,743
261,193
409,09
556,981
697,091
825,978
941,349
1035,617
1100,965
1128,311
1110,07
1047,206
941,538
800,442
639,403
473,427
322,334
202,733
117,372
64,01
32,98
11,748
-1,956
-9,913
-14,315
-14,816
-17,606
-26,061
-37,192
-49,266
-57,72
-60,306
-60,29
-59,377
-58,908
-59,357
-58,928
-57,187
-54,89
-52,682
-51,465
-51,527
-52,437
-53,938
-55,811
-57,729
-59,433
-60,728
-61,514
-61,992
-62,613
-63,67
-65,329
-67,662
-70,569
-73,901
-77,481
-80,996
-84,052
-86,383
-87,833
-88,331
-87,931
-86,68
-84,62
-81,837
-78,437
-74,506
-70,126
-65,357
-60,244
-54,855
-49,272
-43,582
-37,872
-32,204
-26,614
-21,129
-15,761
-10,517
-5,399
-0,4
4,493
9,283
13,971
18,555
23,03
27,396
31,66
35,827
39,902
43,889
47,785
51,589
55,296
58,9
62,392
65,764
69,004
72,105
75,059
77,861
80,505
82,984
85,291
87,419
89,361
91,108
92,65
93,979
95,083
95,953
96,58
96,955
97,068
96,913
96,482
95,77
94,769
93,477
91,889
90,004
87,82
85,336
82,555
79,48
76,115
72,465
68,538
64,344
59,892
55,194
50,264
45,114
39,761
34,221
28,511
22,649
16,655
10,548
4,351
-1,915
-8,228
-14,566
-20,905
-27,223
-33,499
-39,71
-45,837
-51,857
-57,753
-63,506
-69,098
-74,513
-79,735
-84,75
-89,546
-94,113
-98,44
-102,52
-106,347
-109,917
-113,226
-116,273
-119,058
-121,581
-123,846
-125,856
-127,616
-129,134
-130,415
-131,47
-132,309
-132,941
-133,378
-133,633
-133,718
-133,645
-133,428
-133,079
-132,612
-132,039
-131,373
-130,627
-129,815
-128,947
-128,036
-127,092
-126,128
-125,151
-124,171
-123,196
-122,233
-121,288
-120,366
-119,474
-118,614
-117,789
-117,004
-116,259
-115,555
-114,893
-114,271
-113,688
-113,142
-112,629
-112,148
-111,694
-111,264
-110,856
-110,465
-110,089
-109,725
-109,37
-109,021
-108,673
-108,324
-107,969
-107,607
-107,234
-106,849
-106,448
-106,031
-105,598
-105,149
-104,684
-104,203
-103,706
-103,196
-102,671
-102,136
-101,59
-101,037
-100,478
-99,918
-99,361
-98,81
-98,269
-97,743
-97,233
-96,742
-96,272
-95,823
-95,394
-94,984
-94,589
-94,211
-93,846
-93,495
-93,156
-92,827
-92,508
-92,2
-91,9
-91,605
-91,308
-91,002
-90,678
-90,329
-89,946
-89,517
-89,031
-88,48
-87,856
-87,159
-86,38
-85,512
-84,541
-83,453
-82,236
-80,892
-79,42
-77,821
-76,106
-74,293
-72,413
-70,516
-68,638
-66,802
-65,02
-63,294
-61,624
-60,019
-58,476
-56,995
-55,568
-54,185
-52,841
-51,55
-50,298
-49,058
-47,775
-46,359
-44,753
-42,936
-40,9
-38,665
-36,265
-33,74
-31,168
-28,651
-26,281
-24,143
-22,293
-20,751
-19,555
-18,754
-18,424
-18,682
-19,611
-21,246
-23,594
-26,628
-30,288
-34,485
-39,085
-43,884
-48,648
-53,218
-57,551
-61,716
-65,88
-70,18
-74,615
-79,175
-83,959
-88,975
-94,068
-98,88
-102,731
-105,088
-105,906
-105,276
-103,249
-99,927
-95,424
-90,198
-85,329
-81,728
-79,586
-78,821
-79,262
-80,967
-84,343
-89,36
-95,382
-101,774
-108,435
-115,839
-123,359
-128,526
-128,737
-121,409
-107,387
-91,285
-73,495
-50,766
-14,239
50,826
150,233
280,347
430,198
580,502
719,004
843,797
955,92
1058,542
1148,397
1210,201
1227,434
1189,435
1093,51
952,107
785,998
614,728
457,071
324,937
222,701
150,44
102,945
72,364
51,002
34,601
22,304
15,079
14,788
20,383
28,773
36,913
41,833
42,304
38,548
31,225
21,468
10,413
-0,867
-11,295
-20,038
-26,334
-29,704
-30,225
-28,245
-24,312
-19,164
-13,464
-7,842
-3,048
0,385
2,269
2,567
1,429
-0,866
-4,083
-7,921
-11,952
-15,835
-19,329
-22,229
-24,418
-25,832
-26,402
-26,11
-25
-23,107
-20,47
-17,145
-13,18
-8,638
-3,597
1,866
7,677
13,75
20,004
26,358
32,73
39,061
45,312
51,453
57,471
63,357
69,107
74,727
80,232
85,63
90,929
96,134
101,248
106,274
111,219
116,087
120,883
125,608
130,258
134,832
139,325
143,73
148,041
152,248
156,339
160,304
164,136
167,825
171,364
174,743
177,954
180,987
183,834
186,483
188,923
191,143
193,131
194,874
196,361
197,581
198,523
199,176
199,531
199,581
199,318
198,736
197,831
196,6
195,04
193,152
190,937
188,398
185,54
182,369
178,893
175,122
171,066
166,74
162,156
157,329
152,278
147,018
141,569
135,951
130,185
124,292
118,295
112,217
106,082
99,913
93,734
87,569
81,441
75,372
69,386
63,503
57,743
52,127
46,673
41,397
36,314
31,441
26,788
22,367
18,187
14,257
10,583
7,169
4,018
1,133
-1,487
-3,842
-5,936
-7,773
-9,357
-10,695
-11,795
-12,665
-13,316
-13,757
-14
-14,057
-13,939
-13,66
-13,233
-12,67
-11,986
-11,193
-10,304
-9,333
-8,292
-7,195
-6,052
-4,875
-3,676
-2,464
-1,25
-0,042
1,151
2,321
3,461
4,565
5,627
6,643
7,608
8,518
9,372
10,167
10,903
11,578
12,192
12,748
13,244
13,684
14,069
14,402
14,684
14,921
15,114
15,267
15,385
15,471
15,529
15,564
15,579
15,579
15,569
15,552
15,533
15,515
15,504
15,503
15,517
15,548
15,602
15,681
15,788
15,926
16,099
16,308
16,555
16,842
17,17
17,541
17,955
18,412
18,912
19,456
20,042
20,67
21,338
22,044
22,787
23,565
24,374
25,213
26,077
26,964
27,87
28,79
29,72
30,655
31,59
32,519
33,437
34,337
35,213
36,059
36,868
37,634
38,349
39,008
39,604
40,13
40,58
40,948
41,227
41,413
41,501
41,485
41,361
41,126
40,776
40,309
39,723
39,017
38,188
37,237
36,164
34,97
33,656
32,226
30,683
29,03
27,275
25,423
23,481
21,459
19,364
17,206
14,996
12,744
10,462
8,161
5,855
3,557
1,279
-0,963
-3,158
-5,292
-7,352
-9,326
-11,201
-12,967
-14,612
-16,127
-17,502
-18,729
-19,799
-20,706
-21,443
-22,009
-22,399
-22,613
-22,653
-22,52
-22,223
-21,769
-21,17
-20,437
-19,587
-18,636
-17,604
-16,512
-15,38
-14,229
-13,079
-11,954
-10,874
-9,865
-8,948
-8,146
-7,484
-6,983
-6,662
-6,538
-6,619
-6,912
-7,424
-8,163
-9,144
-10,382
-11,888
-13,674
-15,752
-18,124
-20,791
-23,735
-26,913
-30,283
-33,807
-37,449
-41,197
-45,026
-48,892
-52,748
-56,53
-60,171
-63,624
-66,808
-69,603
-71,978
-73,971
-75,711
-77,458
-79,411
-81,658
-84,364
-87,748
-91,836
-96,511
-101,436
-106,013
-109,883
-112,993
-115,154
-116,037
-115,559
-113,819
-111,297
-108,915
-107,177
-106,11
-105,992
-107,478
-111,08
-117,103
-125,445
-135,347
-146,339
-158,495
-170,358
-178,587
-180,163
-172,026
-154,242
-130,782
-102,266
-66,299
-16,087
59,474
164,649
296,374
445,816
598,191
742,537
873,012
983,251
1068,676
1123,367
1137,312
1106,931
1032,598
917,051
774,214
618,435
465,08
332,818
227,914
150,262
94,74
48,654
6,705
-31,419
-64,441
-87,11
-98,639
-102,038
-100,293
-97,452
-95,785
-95,07
-94,836
-94,59
-93,993
-93,389
-93,211
-93,376
-93,698
-94,412
-95,893
-98,418
-102,104
-106,452
-110,661
-114,397
-117,603
-120,188
-122,136
-123,43
-124,105
-124,602
-125,545
-127,222
-129,692
-132,857
-136,469
-140,324
-144,235
-147,862
-150,834
-152,93
-154,041
-154,176
-153,432
-151,869
-149,541
-146,534
-142,943
-138,855
-134,348
-129,48
-124,305
-118,896
-113,334
-107,704
-102,074
-96,484
-90,964
-85,529
-80,186
-74,938
-69,783
-64,709
-59,715
-54,803
-49,973
-45,232
-40,582
-36,021
-31,548
-27,161
-22,858
-18,644
-14,525
-10,507
-6,602
-2,821
0,825
4,32
7,653
10,814
13,792
16,58
19,167
21,545
23,702
25,63
27,319
28,756
29,931
30,832
31,449
31,772
31,792
31,5
30,889
29,952
28,683
27,08
25,139
22,859
20,241
17,286
13,999
10,384
6,448
2,2
-2,35
-7,19
-12,308
-17,689
-23,317
-29,174
-35,243
-41,506
-47,94
-54,527
-61,244
-68,068
-74,977
-81,948
-88,955
-95,976
-102,984
-109,958
-116,872
-123,703
-130,429
-137,029
-143,481
-149,766
-155,867
-161,766
-167,448
-172,9
-178,109
-183,064
-187,758
-192,183
-196,334
-200,206
-203,797
-207,108
-210,138
-212,889
-215,365
-217,571
-219,513
-221,197
-222,631
-223,826
-224,79
-225,535
-226,072
-226,415
-226,576
-226,568
-226,406
-226,105
-225,677
-225,138
-224,503
-223,784
-222,995
-222,151
-221,263
-220,344
-219,405
-218,458
-217,512
-216,576
-215,661
-214,772
-213,918
-213,105
-212,339
-211,624
-210,965
-210,365
-209,827
-209,354
-208,947
-208,607
-208,335
-208,129
-207,99
-207,915
-207,903
-207,951
-208,056
-208,214
-208,423
-208,678
-208,975
-209,31
-209,679
-210,078
-210,503
-210,949
-211,414
-211,894
-212,385
-212,884
-213,389
-213,898
-214,409
-214,919
-215,428
-215,935
-216,438
-216,939
-217,435
-217,928
-218,419
-218,907
-219,395
-219,884
-220,375
-220,872
-221,376
-221,891
-222,42
-222,966
-223,533
-224,124
-224,742
-225,392
-226,076
-226,797
-227,559
-228,363
-229,213
-230,109
-231,053
-232,047
-233,091
-234,184
-235,326
-236,516
-237,752
-239,03
-240,349
-241,704
-243,089
-244,502
-245,936
-247,384
-248,841
-250,299
-251,751
-253,187
-254,6
-255,98
-257,316
-258,599
-259,819
-260,965
-262,029
-262,999
-263,867
-264,624
-265,261
-265,77
-266,145
-266,379
-266,466
-266,401
-266,18
-265,802
-265,264
-264,569
-263,717
-262,713
-261,565
-260,282
-258,874
-257,352
-255,729
-254,02
-252,239
-250,404
-248,532
-246,64
-244,75
-242,881
-241,055
-239,296
-237,627
-236,07
-234,646
-233,371
-232,265
-231,344
-230,621
-230,111
-229,827
-229,781
-229,992
-230,474
-231,236
-232,288
-233,635
-235,269
-237,183
-239,356
-241,754
-244,347
-247,102
-249,982
-252,956
-255,977
-259,002
-261,989
-264,887
-267,667
-270,288
-272,692
-274,832
-276,675
-278,213
-279,514
-280,65
-281,639
-282,568
-283,568
-284,832
-286,695
-289,349
-292,779
-296,997
-302,043
-307,851
-314,319
-321,009
-327,002
-331,651
-334,68
-335,852
-335,049
-332,21
-327,338
-321,076
-314,845
-309,986
-307,478
-307,994
-312,125
-319,561
-328,555
-337,048
-342,089
-342,421
-340,727
-338,302
-333,005
-319,081
-284,566
-218,482
-118,871
10,417
158,922
310,584
454,327
581,125
680,524
748,298
780,573
773,019
729,225
652,207
544,318
414,144
269,749
122,248
-10,823
-116,458
-188,342
-226,859
-242,853
-249,317
-253,122
-256,822
-258,519
-254,586
-246,013
-236,319
-228,627
-225,706
-228,189
-235,223
-245,697
-258,033
-270,337
-280,743
-288,153
-292,273
-293,129
-290,898
-286,015
-279,122
-271,216
-263,586
-257,018
-251,793
-248,068
-245,875
-245,166
-245,871
-247,698
-250,138
-252,86
-255,689
-258,448
-261,032
-263,283
-264,983
-266,026
-266,395
-266,065
-265,032
-263,296
-260,837
-257,686
-253,917
-249,593
-244,788
-239,565
-233,974
-228,085
-221,975
-215,721
-209,404
-203,083
-196,794
-190,565
-184,416
-178,351
-172,379
-166,491
-160,67
-154,905
-149,188
-143,512
-137,879
-132,284
-126,724
-121,194
-115,692
-110,215
-104,767
-99,354
-93,98
-88,654
-83,385
-78,186
-73,07
-68,05
-63,139
-58,347
-53,685
-49,164
-44,796
-40,593
-36,567
-32,73
-29,096
-25,678
-22,492
-19,55
-16,867
-14,455
-12,325
-10,49
-8,959
-7,741
-6,844
-6,274
-6,036
-6,133
-6,568
-7,34
-8,448
-9,888
-11,655
-13,743
-16,142
-18,844
-21,836
-25,106
-28,638
-32,418
-36,427
-40,649
-45,062
-49,649
-54,387
-59,254
-64,227
-69,283
-74,399
-79,551
-84,713
-89,864
-94,979
-100,036
-105,013
-109,888
-114,642
-119,255
-123,709
-127,988
-132,076
-135,96
-139,627
-143,066
-146,267
-149,224
-151,928
-154,376
-156,564
-158,49
-160,151
-161,55
-162,686
-163,562
-164,183
-164,551
-164,674
-164,557
-164,207
-163,633
-162,843
-161,846
-160,653
-159,271
-157,713
-155,986
-154,102
-152,071
-149,902
-147,605
-145,19
-142,666
-140,041
-137,325
-134,524
-131,646
-128,698
-125,686
-122,616
-119,494
-116,324
-113,112
-109,862
-106,58
-103,268
-99,933
-96,578
-93,208
-89,824
-86,431
-83,03
-79,625
-76,218
-72,81
-69,403
-66
-62,602
-59,211
-55,83
-52,46
-49,103
-45,76
-42,433
-39,124
-35,833
-32,562
-29,313
-26,088
-22,887
-19,714
-16,571
-13,458
-10,375
-7,323
-4,301
-1,306
1,664
4,614
7,551
10,478
13,4
16,321
19,247
22,181
25,127
28,087
31,065
34,067
37,1
40,174
43,299
46,484
49,74
53,081
